,Rate_Mean,RMSSD,MeanNN,SDNN,SDSD,CVNN,CVSD,MedianNN,MadNN,MCVNN,TINN,HTI,LF,HF,VHF,LFHF,LFn,HFn,LnHF,SD1,SD2,SD2SD1,CSI,CVI,CSI_Modified,SampEn
0,0.8245681457433521,-0.3177674564460818,-0.8339069031852381,-0.2457527689838342,-0.31939037544297666,-0.14385735971341088,-0.1868278686878682,-0.8319540903767787,-0.12967825889920753,-0.031374614841430296,-0.24566573877259906,-0.6927183536959508,6.447027590585914,0.06863664556056691,-0.017838254906674397,1.9897872065548365,2.373567715734642,-0.8048670987546855,0.5659316106156972,-0.31939037544297666,-0.2429376272705621,-0.09227552354796961,-0.09227552354796961,-0.22799458891913427,-0.24259005062466044,-0.5913644228236998
1,-1.5533614522393013,1.653259012286518,1.6063993226622462,0.447355159457435,1.6576755380818466,0.1915136055477747,1.4278102651370919,1.747689103638322,0.13546727540912193,-0.09779119153647182,0.15304023453909632,-0.8899385878838826,-0.13954328420467144,0.2792097931440638,2.9703718034149356,-0.308528995542768,-0.3104534722862612,-0.1177899674228274,0.9004244134349088,1.6576755380818466,0.3314459326489778,-0.7059397870232406,-0.7059397870232406,1.1676640371429836,-0.2767224824391949,0.4977386076293658
2,1.1012392194224256,-0.07583382532940554,-1.0779241519899418,0.1612211243070076,-0.08164086724770837,0.3105054783674278,0.14314802323270315,-0.8821937354788792,0.08123296025033858,0.18956176634916627,0.22609604171501765,0.21500674263947114,-0.31501496132584267,-0.07938610027149237,-0.29440338109916403,-0.32579859175152726,-0.3560573678406777,-0.16975325658145515,0.3376488829318599,-0.08164086724770837,0.14239188596116215,0.13740325576799514,0.13740325576799514,0.20115805109545595,0.0022423135954220542,-0.5986815327901904
3,-0.5326821549683285,0.6612737904218384,0.4789184393429283,0.4063599382129505,0.6788269827644093,0.313141964456648,0.6429006083754453,0.6261302937895353,0.23188383287925401,0.12855935354842182,0.5152578553809659,0.01681409665304118,-0.3950984927009133,-0.19241406247469175,0.11661257119344969,-0.3520903161525312,-0.4049264443497224,-0.02581720434051104,0.1484372198703547,0.6788269827644093,0.3229552173420833,-0.23482774680181473,-0.23482774680181473,0.7451191505002478,-0.07835165272933454,-0.7537298323212824
4,1.7143515138033127,-0.9432461575077679,-1.5631167308513125,-0.9183268381495651,-0.9395392353166272,-0.7564138760783903,-0.7985779385223312,-1.7805215442156541,-0.6693628509369695,-0.47372702866159944,-1.4558988626086777,-0.4506882106395094,-0.37892447276442104,0.807078712588825,-0.17912227267720315,-0.37970258641455173,-0.3910556985244382,3.5139237569401924,1.4726412984946888,-0.9395392353166272,-0.8596828238060465,-0.33658838765478694,-0.33658838765478694,-1.1836887935676705,-0.547361583554869,0.5207825670622175
5,1.4086785658009702,-1.6609581114553098,-1.3446152656336312,-0.6300312364421236,-1.6596332842480255,-0.47661016989398,-1.6874142252640913,-1.5965290308214133,-1.1910379473416672,-1.0454662504455512,-0.46223036259418493,2.2002466129033973,-0.30694334897792797,-0.496234054322937,-0.2853331830200763,0.02657867445639456,0.14252248946959864,-0.5941585454494368,-0.8424902040435621,-1.6596332842480255,-0.5281015308544369,1.3692889596904723,1.3692889596904723,-1.3303321614751737,0.07506664386073383,0.4633208024166345
6,-0.24359810268618357,-1.1164510390179492,0.1917187005808667,0.01751820122689189,-1.11707169128056,-0.019907670769972383,-1.2448540101906442,0.43001500032511336,-1.1139306191486482,-1.1251234416000238,-0.20427119030203736,-0.5454038567034977,1.2390024603936807,-0.46787213351296075,-0.2063817083037603,2.9567614168569984,1.0286334757248703,-1.2725408505194387,-0.7472621932747412,-1.11707169128056,0.10777182259797723,1.3940806287514866,1.3940806287514866,-0.49541879012551543,0.48150453502385177,-0.8063017068609198
7,1.7228585322989483,-1.0897002499257784,-1.6039557274336538,-0.4437562554994833,-1.0930471994769617,-0.2466211870963324,-0.9688581598831733,-2.388903793096481,0.07753276417799379,0.42285139197908794,-0.4638042025866511,2.494122215244155,-0.44854547533082056,-0.5257602619154432,-0.269252327417948,-0.31640389507925737,-0.45593454882881823,-1.1389922362067462,-1.1497183440582748,-1.0930471994769617,-0.3944671192437919,0.557558872638605,0.557558872638605,-0.8284869560457512,-0.09773894868040318,1.8030113962709948
8,-0.12888681227014281,-0.9732072042188171,0.09923269563203525,-0.8501690433556446,-0.9684594839652384,-0.851277067464629,-1.0754687004898127,-0.3210033308880559,-1.3464737594439882,-1.2989667502114615,-1.1184369632555684,-0.7716689301221831,-0.3316677726679312,-0.2224815027494898,1.0393336984228114,-0.30901258319998354,-0.31201786712815244,-0.12106144690350659,0.04821670484923084,-0.9684594839652384,-0.7858494544189378,-0.19783879268017804,-0.19783879268017804,-1.0907104292143255,-0.485394138212572,0.27071855541687007
9,0.784773804618297,0.023978930908163935,-0.7968786349137572,-0.06151967604970037,0.0338162083708797,0.03892016915341925,0.20110407005291908,-0.7579191531586759,-1.3951455788583549,-1.3188933933597065,-0.3619959269461741,-0.4499892427423151,-0.43722446104263635,-0.4947890895190317,-0.3163462720386522,-0.31486889734925005,-0.2778360528384592,0.25408117801269553,-1.3552675187980308,0.0338162083708797,-0.10882313191266865,-0.22177687589104905,-0.22177687589104905,0.09199738886566552,-0.23580306513668023,-1.1494510580646573
10,-0.7783328245680479,0.517929944184339,0.7483142906138538,-0.071870891788514,0.5247918801423189,-0.17652876359139286,0.4324929082920283,0.7574115389177761,-1.0436268785884881,-1.0826630198366494,-0.11301572523506596,-1.014383617442391,-0.2227030157459813,0.22065791111804742,-0.29122832328847154,-0.325521321627974,-0.27538079436449375,0.5580308860683828,0.8270658166305129,0.5247918801423189,-0.1464458239601319,-0.5362848868197853,-0.5362848868197853,0.29986786116597913,-0.36302825102764846,-1.4367372637965001
11,-1.7328053019415723,0.9391565145885821,1.8170287108053815,0.7333048014943588,0.9392238641267638,0.41903448756547806,0.6535725659574844,1.940465440085454,-0.4556319630619137,-0.6433106826520203,0.9999459764394772,-0.06202543005166114,0.6792110127232855,-0.11074266553624759,-0.2573819546381463,0.15191887066838589,0.3620672091881429,-0.5648529078822064,0.3159800346599086,0.9392238641267638,0.6214488539557732,-0.13675656024899221,-0.13675656024899221,1.1258431500923707,0.08017622351645337,-0.2462884347769821
12,-0.15354731522137607,0.15228476249950307,0.11136836422371912,0.8045245812176444,0.1469483584228005,0.7557727377793838,0.16300166995603263,0.3385672952464953,1.6879929820364892,1.558127616133522,0.9194993412371131,1.4223685185624597,-0.23639945179528005,-0.04904427499854115,-0.3128851145460347,-0.2966014618978688,-0.2769787149341937,-0.08000668849903271,0.43714015214398066,0.1469483584228005,0.8082046440778599,0.6291718153654743,0.6291718153654743,0.7916231306322667,0.5374257170114161,-0.7351601931608748
13,-1.3649968673785304,-0.6933061559786245,1.3891447198796028,-0.8661029921853458,-0.6932406892726087,-0.977271865836553,-0.9463707181647725,1.6927047001848694,-1.1587395970379053,-1.2509300940128103,-0.10482952768996982,-1.1663421107632583,-0.35249433123967816,0.11632810931530461,-0.2988471072892863,-0.35697471317361323,-0.33483923002892824,1.3525747486003505,0.745873764287446,-0.6932406892726087,-0.8348295813929573,-0.5210369734975875,-0.5210369734975875,-1.0482192841349989,-0.5840479813538874,0.3786272036984572
14,0.09130515103422686,2.363878615783383,-0.13587204166776237,0.8272748928413962,2.355453085302963,0.8217405695023489,2.679876336428487,-0.18842778813839542,-0.12967825889920753,-0.11440586348338166,2.309617189152067,0.9223920785071146,-0.17431083645213122,1.0193062084600895,1.8025073555216011,-0.35293993422740927,-0.3787049682811653,0.4031709007203545,1.9946192237114437,2.355453085302963,0.5257576892668191,-0.824675064694239,-0.824675064694239,1.7786267044248347,-0.272320610462909,0.8637272167549352
15,-0.15744347123241054,-0.26300633094583653,0.102826057213425,-0.5704277120131136,-0.2615407588107695,-0.5796138429811017,-0.29309740534236783,0.4657497156415821,-0.3174124213052906,-0.37168165720138535,-0.4571341166319411,0.02089786542440335,-0.1563957166560855,-0.30704460782008314,-0.3235866616166125,-0.1399243782471928,0.22838754149750257,0.2481148052238636,-0.1460856058637625,-0.2615407588107695,-0.5703506785970793,-0.5183818432492515,-0.5183818432492515,-0.5055763701577918,-0.49564721263965095,2.064056095631151
16,0.5222079897599767,-1.2038905612448443,-0.5438711620984732,0.5889680906178296,-1.2059755959780751,0.6570015413636877,-1.2502841026738036,-0.12634734642785167,0.16235266011792848,0.16327370399875585,-0.35734964400811564,-0.3571364361284342,-0.21572356099579543,-0.5076749156519699,-0.3124735176903989,0.3659007453644681,0.12856684762663864,-1.0361401628146942,-1.0014233783388706,-1.2059755959780751,0.7260282667470307,2.5922021466367813,2.5922021466367813,-0.1848933689454978,1.4554221008286905,-0.4495246883110854
17,-1.343282110523282,-0.27564754236362027,1.362309554868156,-0.13052803119052542,-0.27733288438896936,-0.30310523412597573,-0.5102878101606473,1.5892822529235036,-0.9733231380283276,-1.0775852435404762,0.32844182737593114,-0.7830507356920036,-0.35662134880013413,0.9139071680813408,0.6885442779710351,-0.3773859311726806,-0.4155400639202169,1.8978079639157646,1.749435209028358,-0.27733288438896936,-0.13410504274517812,-0.0023089981024418827,-0.0023089981024418827,-0.1141040462427214,-0.16724742665504755,-0.8535320413489658
18,0.09937232211419689,-0.4710733769646635,-0.1578430696591944,-0.7385922011346078,-0.4720491582490683,-0.7173369396800575,-0.47997673662451146,0.1202260523919953,-0.6761300563843786,-0.6802882713862491,-0.4013722063562632,0.27572733243605874,-0.4142980187498071,-0.40129113632711283,-0.3198746074989113,-0.327390135764513,-0.22869215560168074,1.0535389435811247,-0.4249003999345834,-0.4720491582490683,-0.7274137211460723,-0.5542500489012129,-0.5542500489012129,-0.6902773139819743,-0.5572280293435814,0.6237495546298274
19,-0.03944221775740514,-0.8202715464014944,0.016048183241615922,-0.8571906713980599,-0.8143758130559106,-0.8504409850202376,-0.8950646298555638,0.03211220836208141,-0.6008046200699212,-0.5986214302030146,-1.188945072260085,-0.9751937896334695,0.06745876827850698,-0.3916252597577018,-0.3045488974777724,0.23646782672028457,0.6212240874796312,-0.44187692010141194,-0.4001339770346442,-0.8143758130559106,-0.8161715366532186,-0.3915267968474684,-0.3915267968474684,-0.9664326740649836,-0.5454381167277804,-0.5061758584560887
20,-0.6596611856172426,1.7314812499106098,0.6315951674348695,1.1022200484249993,1.727154939732628,0.9494496578019072,1.7588734540253497,0.03655060100199787,1.0654853204997792,1.0168424404562544,1.3450722222225087,0.5529563536368473,1.2978394551333734,0.14386285541785962,1.043190310129062,0.15126720692478987,0.35442676986004884,-0.5729991700207641,0.4747501513774178,1.727154939732628,0.9108488248743905,-0.32861040722353724,-0.32861040722353724,1.3548080718731317,0.0939773038696592,0.1701818610800413
21,-0.4104570779960611,0.0735964226560577,0.3631731860759817,-0.2531756669466611,0.0750696322579801,-0.30241332272817784,0.02875873830306273,0.7479626723644912,0.18367555414418826,0.06699121616949004,-0.8932674319060326,0.37491715052419117,-0.45591137500581175,-0.15306393337660304,-0.2416050089633362,-0.3877389349460476,-0.47915145984983665,1.2888270496908014,0.16714640167372574,0.0750696322579801,-0.2880209709737304,-0.43782695227777213,-0.43782695227777213,-0.03658027775706973,-0.375232199448777,-0.07046299334482817
22,-0.06867604808863315,-0.03717435669533865,0.01915871902273801,-0.4760491909361663,-0.03482506760156981,-0.4785535152097724,-0.028605990345487976,0.3146379595567911,-0.9733231380283276,-0.982621544078766,-0.24046082153180873,-1.3371728675270511,-0.33829225188637413,-0.4406906180667551,-0.26613589595117754,-0.18828425769178547,-0.04436521645033517,-0.1535372630110641,-0.5142161740202636,-0.03482506760156981,-0.4788612772778103,-0.5666182181405194,-0.5666182181405194,-0.24304519864925184,-0.4799458121922875,0.49372747561254376
23,-2.6025043303259587,7.155387829107338,2.911737935610361,2.15034875204605,7.157572512414641,1.4738463321999995,6.435139111544112,2.4795957690636854,1.5410694446920628,1.0370261496385391,4.2412118544419295,-0.880354405186891,-0.3784136018504475,1.6574906798834426,6.84861075355583,-0.38511956666506597,-0.4671389284615262,1.2922313691534697,1.4270004217074057,7.157572512414641,1.6613046333634962,-1.285008706951517,-1.285008706951517,3.250028452983622,-0.24106847584794394,0.6450038767749282
24,-0.23740049581495928,0.36021532303195514,0.18708168953522247,0.18262893646321454,0.3597834600045897,0.1405642128265135,0.3764633503104363,0.19070145555253132,0.048975950232985455,0.010218656370948771,-0.13754468596386074,0.26489812897077997,-0.15942352002781107,-0.4717954601484686,-0.2544859046912112,0.23329365427506604,0.10314322001528545,-0.9510039094201733,-0.7273517314854725,0.3597834600045897,0.12802983314279912,-0.21172972993671732,-0.21172972993671732,0.42507795924208025,-0.1423811895414656,-0.05553344636638181
25,-1.230725087983077,1.1866643980619365,1.247653113730945,0.19311007133718294,1.1857338643513422,0.007204227662945837,1.0301047622831712,1.168585056274585,-0.35976322639459174,-0.484207734694429,0.983367859147681,1.8134164303929659,10.605614764985344,-0.38445676384685923,-0.1423384752507492,12.171581069623603,14.330325512409381,-0.8223192242145965,-0.33823510430149367,1.1857338643513422,0.07876611063115117,-0.6988207459404553,-0.6988207459404553,0.6960672741989408,-0.3504502832337157,1.2865321526698543
26,-0.785979574117572,0.7549139740574339,0.7534286866331809,0.51595928118917,0.7568825502085884,0.3760273051403494,0.6842858661560555,0.9656762290883055,0.10040670859617669,-0.037290309206667316,0.6725281732613297,-0.8214708140930013,0.6187134982739252,-0.41630173635253154,-0.30541399951301335,1.075913606521174,1.5405942353088726,-0.6896222439191055,-0.4428514775228679,0.7568825502085884,0.42539328188602443,-0.1932734548251577,-0.1932734548251577,0.75294432754995,-0.021450857029026004,0.5273846379993221
27,-0.07265647071333511,0.05966136818998736,0.036341933757381845,0.39742351073543775,0.07325013001622327,0.37170209282821726,0.07529098821744441,-0.2159697735582366,0.653706273709281,0.6583236953228655,0.09116376559507886,-1.4744738048857773,-0.28855111855070936,-0.4538346173511498,-0.2960404481342218,-0.08025139249464526,0.05247831959126337,-0.4446830312825947,-0.7588158186192273,0.07325013001622327,0.39372783001210315,0.2703735879323077,0.2703735879323077,0.394453743909053,0.16934616202990252,-0.5225553136307366
28,0.10135465368791657,-0.07899575236655342,-0.14133552568688987,-0.07537261204367113,-0.07427085971974684,-0.06600159093107547,-0.045064439526142974,0.19540123218117073,0.8194222310701531,0.7516479758519291,-0.5832716029003384,-0.8062228772902196,-0.35568593612812704,-0.5188768244029356,-0.2810135492726285,0.004301620400088354,0.004590600643397374,-0.7560644604696622,-1.0591447819276452,-0.07427085971974684,-0.09571706054933253,-0.12724527898467564,-0.12724527898467564,0.029466642650572993,-0.19665920740581888,0.008265434595401668
29,-2.1228098461340363,2.3559589066644087,2.295211260201095,1.5447102927193517,2.3546769001672687,1.061094713990611,1.9631905339151408,2.4011193424247543,1.3355996894615174,0.8710680738625016,1.3741274619067518,-0.7218002860997701,0.0840192629403662,0.08883256175392394,-0.2096326975476637,-0.20949895934864993,-0.04830293384761952,-0.0053783363971950686,0.44997978049677745,2.3546769001672687,1.2876004040570204,-0.352552286551399,-0.352552286551399,1.777164596000931,0.21624878991946778,-0.7684661910099483
30,-0.7902421683596763,0.00017277868501546422,0.7570956896122417,-0.41664484318071693,-0.004315699742655402,-0.5019973952649585,-0.12156431850426659,0.53125907781485,-0.12967825889920753,-0.20110208418145195,-0.26342110856388906,0.7504824217069404,-0.1778752253239661,-0.41590300511518535,-0.22965397319500883,-0.002505855887195038,0.04748364158769003,-0.6738321447005511,-0.4527878647377856,-0.004315699742655402,-0.43553187843337726,-0.5412942064278583,-0.5412942064278583,-0.18309892283597015,-0.4580020203077858,0.061493477443927094
31,-1.0247339936957376,0.6207877818446857,1.00893857822677,0.14554564277572193,0.6205333721048006,-0.0059928430547288546,0.4886742810957211,1.1512526871184592,0.8123918565079501,0.5949303636673762,-0.1620910067417634,0.018118539267493013,-0.3367871777069481,1.061532162949529,-0.2830276595298747,-0.37617475478036794,-0.37449368571628755,3.0927044892269637,1.357737746874409,0.6205333721048006,0.04238057800389237,-0.4501356105953187,-0.4501356105953187,0.4354222843838613,-0.26621594944656063,0.1436006256168037
32,-1.429275257976052,2.229138348753131,1.4682363229073365,1.8443693174820406,2.220667246873858,1.4801155684641538,2.0548620824041044,1.2019958531166461,1.2924659675816375,1.0270801779252252,1.771717799177681,-0.4275045102187519,0.12177683690707218,1.6746591235904744,0.8126737426319813,-0.3354617156932466,-0.3890533717638592,-0.2916879018367061,1.7525896915690886,2.220667246873858,1.62272941033585,-0.08372264143416705,-0.08372264143416705,1.8703523230526538,0.5047807562617642,0.9592964742097763
33,-1.4698258919587694,-1.0254990401721058,1.4558802057193703,-0.6926404629732994,-1.0237686628420093,-0.8248542875804119,-1.2975752676129233,1.5738856462345365,-0.48173775662825935,-0.6336418831181407,-1.1328780705035748,1.2094924260769835,-0.09029628524161436,-0.42047591127911793,-0.28076745464529745,0.1300917513029936,0.23494692502248268,-0.6746668159012985,-0.45060985248791724,-1.0237686628420093,-0.6178386260320237,0.11860700533678166,0.11860700533678166,-0.8176032131485982,-0.3323914469161611,1.7905604759744433
34,-1.5638855420303968,0.6055299197388123,1.615370732066193,-0.49228389346737994,0.6027362262087241,-0.6578400427389528,0.35350519189232565,1.643711960196329,-0.5825823512926142,-0.7306095110201435,-0.5112131155915824,0.8402937757975991,-0.3368202290321132,-0.43707874226291965,-0.3025019913391425,-0.19113120776427853,-0.08336411094716463,-0.25360503941409296,-0.4829600429782462,0.6027362262087241,-0.5497271157718054,-0.9714810880616103,-0.9714810880616103,-0.013366714113674995,-0.6209105620377776,1.9736703091516519
35,-1.090779653694554,1.2756874251756332,1.0836175377221873,0.4172663298026766,1.2725435811899517,0.23599161193306897,1.1610474705949705,0.9602745807862976,0.33049167609156144,0.1766943948783723,0.4660917293640259,-1.3092612027111497,-0.41992613916675514,-0.06398777743195101,-0.25564606230404163,-0.37325197698713486,-0.42770255917461236,0.8487336424851509,0.33117531601006617,1.2725435811899517,0.25221554149215714,-0.6027736018358761,-0.6027736018358761,0.8395015401614312,-0.2578358035863627,-0.09710153650027116
36,0.8105452494348954,-0.3690779835036455,-0.8133906875430612,5.443705323258407,-0.37250858775795687,5.656640387221738,-0.24998775187803843,-0.4080421411449199,5.14310224008693,5.142231529059549,1.4511336717948127,-0.812295521870928,0.745826799151265,-0.41590882138568575,-0.2915605603406822,1.2440743782392565,-0.26502675790161834,-1.4659071550551046,-0.504471321319613,-0.37250858775795687,5.79267128793138,7.181280266701531,7.181280266701531,2.1978350793139647,11.414208715190433,-1.7079654035787706
37,0.5887353266353269,-0.14325959824841977,-0.6151780076112837,-0.9444575911439516,-0.1444956248155199,-0.87815716986308,-0.027539808397475385,-0.8309457353926941,-0.6268261335127574,-0.5350808280837608,-1.089194077689921,-1.7693359286016548,-0.44906132703331697,-0.5438626932269636,-0.3050239708377101,-0.2827087754881126,-0.28767755824232993,-0.3242486425168715,-1.6042335749006735,-0.1444956248155199,-1.0573656256617672,-1.1367886581813615,-1.1367886581813615,-0.9361952403714195,-0.7889544125443109,-0.2923511018292682
38,-0.16852965579818008,-0.5740908494918935,0.12549343491301582,-0.7603279674917541,-0.5797741625394693,-0.766440533213042,-0.6395121680477841,-0.01805178120639166,-0.5515006997292349,-0.5456705792320397,-0.8289093541337126,1.9845176819880317,-0.36428131040776457,-0.41839241538117367,-0.13453147560020126,-0.25190528060057493,-0.2840000845788205,-0.5754951093291734,-0.5789169824307294,-0.5797741625394693,-0.7845675668434706,-0.5449104253832808,-0.5449104253832808,-0.8540964580093163,-0.5734926884251614,1.2364244461731937
39,0.21262308575653183,0.39856733069589895,-0.2583857402854102,0.22698529078973995,0.3916742984741759,0.24926400083161682,0.513311600606603,-0.24683729007812957,0.37650866908445135,0.3908003477838429,-0.03594855991505646,0.335681229133666,-0.3670716166113261,-0.2796563499084921,-0.3276567944992641,-0.3191600889956638,-0.2877957031422369,0.2755128373277755,-0.05271633106614297,0.3916742984741759,0.12139001160948465,-0.2390001967942123,-0.2390001967942123,0.4665190168878721,-0.15569369443345143,-1.723521586914221
40,0.21467651728552814,-0.19749195036972592,-0.2642122568004659,-0.7394982910560912,-0.19791342997126735,-0.707512565734325,-0.1549931910121172,-0.43512797857664454,-0.4912403506776688,-0.4422648824851635,-0.8256563194339891,1.0598070069974808,-0.3073216262739995,-0.14855559902962034,-0.3023777435995696,-0.3109090164362969,-0.33076857637385165,-0.22865894596683006,0.31704601242942454,-0.19791342997126735,-0.8077411010656909,-0.8294364225552255,-0.8294364225552255,-0.6794347366618,-0.6526711170335198,0.9568959763626128
41,-0.2583741926234783,-0.09463803940991115,0.20486451760314903,0.7536250106991227,-0.09939327919501309,0.690346076686897,-0.12597515210881777,0.3378492340729178,-0.22702189772794124,-0.27131762941186094,1.0357767558519888,0.39803042562060015,-0.42463650761169974,-0.527012385878693,-0.271802586099373,-0.2173883469755689,-0.3721221091896498,-1.0783597919410965,-1.405136434731621,-0.09939327919501309,0.9021839343706708,0.9829112071733276,0.9829112071733276,0.6740400643967782,0.7678752993762281,-2.2656204498278893
42,-0.422156464227434,-0.1960318515215414,0.38183541152150163,-0.19446773642426354,-0.2016653780895839,-0.2483436232688556,-0.2677566591983457,0.3683193826423521,0.2921441819308201,0.22041740148313418,-0.5024906957900349,0.1155975826802571,0.18603724768378105,-0.47556982043687207,-0.21052072852289805,0.9828161767238165,0.4622135873084315,-1.1190276981791554,-0.8851719612885776,-0.2016653780895839,-0.2125508133915491,-0.15400598521980333,-0.15400598521980333,-0.13095653692992237,-0.2517896147501264,0.5474361985838678
43,1.5181483513085392,-0.3935439328796892,-1.4342226738146215,0.048116005500975195,-0.403486920773533,0.2496963704137343,-0.16158344174317846,-1.472914004035437,-0.3243655390876098,-0.14711784432408442,0.2885123980899057,-0.6023407513494207,-0.3834760652957502,-0.11005222277688408,0.05781262813340472,-0.3538975283718658,-0.48557979366775467,-1.207468438767544,0.5139046797128359,-0.403486920773533,0.3067693606463577,0.6438424960560902,0.6438424960560902,0.1356825965492142,0.288241027335267,-0.3485037437242366
44,0.16579029469935627,-0.6897503168662107,-0.194989190800367,-1.3289433021161356,-0.6904091485408248,-1.2964669205842378,-0.7185972160107756,-0.30370306633402117,-1.3951455788583549,-1.3482374815230422,-1.177365308007945,-1.0319982059256172,-0.4473865717546071,-0.5480554144543253,0.03765730949755663,-0.2579415010982,-0.35601217977681265,-0.8613066013295365,-1.9011646642667162,-0.6904091485408248,-1.4256319952554217,-1.3136077712106076,-1.3136077712106076,-1.6802629790409294,-0.9034764036882537,1.9100379195550032
45,-0.16676969895639066,0.3628282189917983,0.11295423200788622,-0.8609295489398154,0.3773191679229192,-0.8629970707688299,0.39465138354009005,0.1271131363371644,-0.40084982710031997,-0.4146733556518073,-1.1718912385693763,-0.7436824355266918,-0.45791648202167784,-0.565004148134642,-0.3171937894207747,-0.2612585045162366,-0.23169486299316588,-0.2608202640799712,-1.881785369040496,0.3773191679229192,-0.9672296166170343,-1.2660456912053983,-1.2660456912053983,-0.5654333495388837,-0.7970062906285005,-0.6650592323035915
46,0.12656744731742006,-0.429567677825272,-0.1697959569156134,-0.1750269040403088,-0.42812241760698777,-0.1604482380100316,-0.4316042151247817,-0.08186534223327627,-0.235133869739448,-0.23050839965599815,-0.6818074035578544,-0.848567233393304,-0.36347356698146693,-0.5118086981831956,-0.25733125850975763,-0.060474283764981915,0.034049555327466,-0.5450613654246493,-1.2272290307876828,-0.42812241760698777,-0.051481755242348236,0.23664011663118295,0.23664011663118295,-0.14216856095552605,-0.0451445621626881,0.806209930735196
47,-0.3996151855843351,0.04558423276890064,0.3267336875323405,0.792080621189677,0.04000485941271489,0.7067391507937093,0.005035865460975941,0.3062325317713177,0.3813758512789816,0.31438265857393866,1.8829818704943213,-1.2300903882029446,0.3097591659397842,2.923804555331437,-0.23494426689730338,-0.34430677288019507,-0.3208405040003164,0.7877327350448093,2.870891653332578,0.04000485941271489,1.1297749774131165,1.0704650185081013,1.0704650185081013,0.8952695751293515,0.9446064977840452,-1.000342040244186
48,0.40773440816878853,-0.09670807937138878,-0.441669838364532,0.22069414315851166,-0.10594504528487064,0.2709199928601219,-0.00795802839919707,-0.5141918919940635,-0.12967825889920753,-0.0730548380813886,0.25907790619710613,0.9660040444889398,-0.1389765349628232,-0.09564490936517335,0.034744348733098646,-0.2423287352440583,-0.28034297993365476,-0.622484740577423,0.33256511092545793,-0.10594504528487064,0.24241125984160472,0.26794651158945704,0.26794651158945704,0.2606462489943207,0.09965097382281368,0.7378735284645299
49,-0.7120171062775498,-0.19729382237280993,0.6727320017133918,-1.0768521620151608,-0.2010972825024455,-1.1167673750460267,-0.31822137543852336,0.5701715999420062,-1.0177255010202044,-1.0445018480004096,-1.1146558005437324,-0.8290265498227626,-0.4582289389765565,-0.5485422384366461,-0.33024618807264233,-0.32835767208569816,-0.37079659380210267,-0.2552625049543225,-1.8343201804676401,-0.2010972825024455,-1.2067942243445098,-1.277887434817518,-1.277887434817518,-1.130927110947627,-0.8510192673610187,0.6161807845639716
50,-1.2510971900417693,0.6632475481958191,1.254327828478103,-0.1410740630782208,0.6561407166241482,-0.30054573148652886,0.4836600749572452,1.5025954760965552,-0.85994793658043,-0.9690067321931854,0.17101171055785325,-0.4534339250579761,-0.451651313861722,-0.4775913103040875,-0.31315480827241843,-0.3588520529927425,-0.4458240584340582,-0.4550406946148933,-0.856609143600361,0.6561407166241482,-0.23440544035234984,-0.7149707288526099,-0.7149707288526099,0.27770591105640796,-0.4511023352539278,1.694155136371483
51,-0.8840969249704278,0.35758719160143493,0.867390623377546,-1.1807606084733404,0.3520544050226629,-1.2287161653196215,0.23837714882744815,0.7029414166940837,-0.9733231380283276,-1.0127851138018418,-1.1159981040006248,2.1426034772641875,-0.4584245648770016,-0.5286673627925377,-0.32225251978535746,-0.35360618179252856,-0.3410479188625996,1.0149452061389728,-1.2411310979750227,0.3520544050226629,-1.2893010213476914,-1.5651742182658948,-1.5651742182658948,-0.9677877467713036,-0.9195818149032363,2.783175549614834
52,-0.05478512220999446,0.5425571016552169,0.02744157850489237,0.6050836410954452,0.5288794926405224,0.5757737988180079,0.6113470460926103,-0.007199132106599436,-0.27028574001952804,-0.27347537339005173,2.637875818393563,0.48754195503803094,-0.21231019363571374,-0.5436092430832642,-0.30115147061165437,1.0940082305027972,0.18416870560349152,-1.2683799017305828,-1.3989783156042979,0.5288794926405224,0.5375544326679973,0.05540492076779325,0.05540492076779325,0.7332389554206798,0.13573333021055564,0.49551221808777857
53,-0.34839346113375164,-0.2800428259744369,0.29217243461858133,-1.0223139669263275,-0.2835139498312057,-1.034648139407849,-0.34403994290788126,0.18863852906926123,-1.1420521148665255,-1.1349773793467037,-0.8704642311254022,-0.015470667514088125,-0.4509509685884241,-0.5601745114752434,-0.3017457890480544,-0.21938787770900214,-0.22653020575624974,-0.5533666809526052,-1.6728124493649201,-0.2835139498312057,-1.0964891620227528,-1.112578957932979,-1.112578957932979,-1.0046422991359205,-0.793174122676372,0.09383713909554943
54,-0.17462211170989694,0.8619331875421617,0.13235947271271037,0.8328247486709021,0.8592761273363301,0.7795991520262171,0.9399602635868639,0.15711910096802006,-0.045313771745575715,-0.07562514334080733,0.8237356678199651,-0.09437051610580852,-0.09376968833540089,-0.29414869915602815,0.06446164638656147,-0.10250135410804498,-0.04560664215456093,-0.569465085607169,-0.11283162193802351,0.8592761273363301,0.7436450878474904,0.014415722557388285,0.014415722557388285,1.0206030003696902,0.20227075021705795,-0.4491239283588151
55,0.7115857388553106,0.7077337149485036,-0.6800684825206578,0.9897455141369406,0.728924202879278,1.0868815177631443,0.9621152160571197,-0.550127055274892,0.5934459246577151,0.6539054403848615,-0.5582004078098594,0.7687811254982914,0.6923959140567881,9.136025956799296,1.195847390037243,-0.36731072100983114,-0.390231868072716,1.1867988058476937,3.518360630863002,0.728924202879278,0.9268801408032539,0.25980453992879593,0.25980453992879593,1.0041132258943477,0.4058061146737198,-0.10105644465831061
56,0.46035981994164954,0.5821581535869249,-0.4916865011406756,2.347296637117729,0.569561603291455,2.411032824196761,0.7734116157713189,-0.3597995081324145,2.044624681527788,2.0581070681935563,1.1623019124192548,0.840460953598763,0.04838570239146795,0.7077748681301764,-0.29317885218659706,-0.3042744523311424,-0.2403875854474035,0.3001840699140099,1.141280715098026,0.569561603291455,2.7208366416240746,2.0029324660901664,2.0029324660901664,1.8373229867105458,2.607366696613249,-1.8338611706982482
57,-0.3248683292633008,-0.34393435185695487,0.2685469577945184,-0.4279472501673931,-0.34769934746275677,-0.4596510087665236,-0.4098967672949368,0.05843302330971821,-0.20876996639665424,-0.22145638584810523,-0.4036287288987759,0.1883390300327164,-0.40409545900760757,-0.4302637537053373,-0.31588965672982555,-0.2995978442224804,-0.27252694790211734,-0.0037640317821675488,-0.5531025016410835,-0.34769934746275677,-0.4472093250899822,-0.31060415640212985,-0.31060415640212985,-0.3860434694989142,-0.39091610736911564,-1.181848871245417
58,-0.08360389895611946,-0.3578612981482043,0.01839281804878626,-0.47705022196460234,-0.3594073881341423,-0.4794453424001057,-0.3834820042289924,-0.10649100283054827,0.14149330930190465,0.14054577667630938,-0.9372062438757135,-0.48829376738755204,1.059447963015974,0.06353999553700558,-0.2755722771315141,0.13681054083793517,0.5600588049822776,-0.30404837930549733,0.7001691177303918,-0.3594073881341423,-0.4978355201326991,-0.36145469831439403,-0.36145469831439403,-0.4472484389157643,-0.4245771379358781,0.18333029090569636
59,-0.3747699848005564,0.35808275203645773,0.3176841280737253,-0.5106411445912118,0.35442945817421095,-0.5446295137172382,0.34744331560390773,0.45735304900210383,-0.6921081783186211,-0.7267111953610499,-0.7171877932314876,0.08697025133685145,0.021861150753913695,0.7479318493647223,-0.027037841993868824,-0.3114580017440505,-0.30036128531090434,0.009432206492075917,1.1693935503106354,0.35442945817421095,-0.5445680027581936,-0.8524433274895777,-0.8524433274895777,-0.12484566615927871,-0.5847614407572591,-0.6904434189116047
60,0.2938601931237069,-0.059499916706213386,-0.3388574679519198,-0.3047556591573198,-0.06414911362932862,-0.2674694688951014,0.014330422336709255,-0.19897634511273982,-0.204117513758844,-0.18620780977582096,-0.21880591189584,-0.6656968024748511,0.13710254222748408,-0.08087504495046041,-0.29144713345663975,-0.12323559290825405,-0.07863898693734507,-0.5697631494388957,0.33484638194415334,-0.06414911362932862,-0.3335922693724871,-0.3919958170914692,-0.3919958170914692,-0.14980474939786373,-0.3760173640452368,-1.2763005810336592
61,-0.14015903159069878,0.11210086464357345,0.08237204962352662,2.8638863537180486,0.10716054970401047,2.7652475442747306,0.12434283485696809,0.3390352815616358,2.1903451618695406,2.0379723627040622,2.173547453582762,-0.3212919835743179,-0.03908203041189998,0.15898521394541423,-0.12519745551752012,-0.2641842285991637,-0.38199853788522287,-0.9526266928936511,0.9019086381657777,0.10716054970401047,2.955644624743699,2.872473257626641,2.872473257626641,1.7516447165593616,3.5019886934934603,-1.2110107216138155
62,-0.7947403039920972,0.638541468184322,0.7619875444096789,-0.3284188347633068,0.6509508787999142,-0.41951273489852453,0.5583461737454228,0.8809674328682728,-0.7272600485987009,-0.7972351699698719,-0.6564104403736815,-0.17185852997437978,-0.3951962590166692,-0.4447135693967951,-0.31604783904764305,-0.27513896886390976,-0.23260454866704586,-0.11420942437244425,-0.6505288528537694,0.6509508787999142,-0.372098575759867,-0.8345263929997183,-0.8345263929997183,0.17446310051990685,-0.5306353173478849,-0.6264668670436446
63,-0.29799959539325277,0.28071706378388905,0.23462075968236054,-0.1689508660697053,0.2917120945394853,-0.20554273059653771,0.27994851164361506,0.22490308791956146,-0.36695338139154765,-0.3919918734244909,-0.5837902250806674,-0.17004767841597856,-0.3989894090561544,-0.5647222373749932,-0.2649825393424835,0.4941599133115293,0.20516479424571343,-1.0576539249491685,-2.0491551988502534,0.2917120945394853,-0.3023055607549573,-0.58578836304199,-0.58578836304199,0.051919490953356906,-0.42866021150507694,-1.160331917696424
64,-0.2793527104546093,0.3864454787667281,0.2275083437526744,0.02462669832310517,0.39002182321128437,-0.01782374595932203,0.3968897636359209,0.11531179428550523,0.45438358166599935,0.4124383754605454,-0.4827151214823418,-0.2688810841559178,-0.3760485842388414,-0.37493079616814173,-0.24049971806828166,-0.2944308547188597,-0.25540886395552204,0.02286935959622302,-0.3267774806111331,0.39002182321128437,-0.0920129518732025,-0.43746996615316763,-0.43746996615316763,0.2654545866480169,-0.30756414433693413,-1.4860297469206738
65,-0.4180427139942783,0.5582080637450054,0.37434326013872987,1.8422527219308837,0.5510927515923215,1.7058133699464182,0.5535592794711368,0.502376264660426,1.0755287120083739,0.9445571861462911,2.156870612798707,-1.1615312928200594,2.068992824881461,1.593789374519708,4.145942381211398,-0.13250565883657858,-0.06306110261578123,-0.4976432798484553,1.7435114409324335,0.5510927515923215,2.630941417214237,1.9433916082847296,1.9433916082847296,1.7371909033466963,2.4957934529676438,-1.8813751258272498
66,0.09503255099755542,0.21421057190475024,-0.13985912124609423,0.7370023309407787,0.20228147315744596,0.7335842825452472,0.2819117709873891,-0.17689506243087816,0.15153670081049928,0.15979076256733402,0.788708683636323,2.385711785004484,1.7763584312749738,0.887990834607483,2.5067865043375828,-0.051556645019883315,-0.08668014282836822,-0.79129330650082,1.374777181026075,0.20228147315744596,0.8661395380682215,0.6352087043961404,0.6352087043961404,0.7395603497694055,0.5700072496409604,-1.2435181324316595
67,-0.6697386623559047,-0.5394191506594176,0.6222092088972119,-0.680140871720745,-0.5428209620232363,-0.7371383311304226,-0.677178911778142,0.4928622481087498,-0.5898481938899766,-0.6329796369541952,-0.8018441155664874,-0.36752055215662394,-0.37291626119813415,-0.5138252587879301,-0.32994222843855164,-0.08170278120529435,0.04208283309723054,-0.4603363145668919,-1.0243564077188174,-0.5428209620232363,-0.7140941639456646,-0.4838153138183366,-0.4838153138183366,-0.7043513760513709,-0.5341362597836883,0.5460303712979219
68,-0.6152784868652315,0.2805483366785474,0.5641968899922115,-0.3729797975227659,0.2724162814775209,-0.43980551901196363,0.21453385529268298,0.6790711354403467,-0.30498109043299854,-0.3829013597730608,-0.5054076145647516,0.362298003258049,-0.3133029648994963,-0.015235621147340294,-0.15807664714301345,-0.3328476338154849,-0.37918213151497965,-0.2452480620044176,0.5274290184462332,0.2724162814775209,-0.4766039213256721,-0.7446395757650688,-0.7446395757650688,-0.09456739297854198,-0.5330729148805239,0.31667433190675376
69,0.1025050752720461,-0.08274452846058153,-0.1591628886326126,0.626496991873852,-0.0885527192581999,0.6280667659862,-0.04590746753336077,-0.09402030530506948,0.5934459246577151,0.5797021821938341,0.4539075085090079,-0.20955329800587144,0.5493046390810862,-0.23102583150186673,-0.018291174781680967,0.2559635259754932,0.1858482709223291,-0.8928722507390843,0.05084279222663779,-0.0885527192581999,0.729601939580657,0.7827436385783682,0.7827436385783682,0.5335199847596926,0.5725586893564207,-0.4158836002778647
70,-0.9212605272372762,0.031730973417561543,0.897156891035827,-0.7751610754113513,0.024693479996113384,-0.8517972760660463,-0.11252699607882181,0.6562319254306549,-0.46010583801340005,-0.526482537248789,-0.1337219909585271,0.7000201183972037,-0.15001699766458304,-0.42287940743609265,-0.28549828950600054,0.05388615032049423,0.1615485790613003,-0.626463744078976,-0.5076268287726801,0.024693479996113384,-0.8102929572193618,-0.9539150587370188,-0.9539150587370188,-0.4928717026589483,-0.684675665825803,0.2767832757928825
71,-0.09318722087737327,-0.03336362599291662,0.05523278806293639,0.9097001523596444,-0.039207809131509924,0.8680818081965902,-0.031119248949143002,0.034980082283321313,0.3109755403767007,0.28512308975576156,0.4412750391084828,1.9966191717145305,2.7268070858363394,0.6433129643788453,0.33850616714920634,0.190914428998226,0.19433346464646,-0.8098245094860205,1.1481753279570135,-0.039207809131509924,1.1933609987672473,1.228582981265053,1.228582981265053,0.8239523391195256,1.0700119217553024,-0.333828842404814
72,1.2348596948685417,-0.11042422585597675,-1.1941995053721155,-0.5461532810290292,-0.10514692134258628,-0.4071859786027211,0.12656385652652288,-1.311043697870784,-0.9733231380283276,-0.8427705904544134,-0.40460787529194986,-0.10526368375109327,-0.32341890362224013,-0.2676042000150712,-0.007906370441744033,-0.29092361323984794,-0.34038664838030624,-0.5444615065875194,-0.04520755212898522,-0.10514692134258628,-0.5326055168217403,-0.5811577355608022,-0.5811577355608022,-0.3485382766682516,-0.5015930664605098,0.062623125408201
73,1.2864240967959084,-0.548321757825427,-1.232122846689412,-0.29134646714840984,-0.5487487182852733,-0.13665256859451572,-0.3835265229339988,-1.2648894319847228,-0.4912403506776688,-0.3472357625017765,-0.3906814545432174,-1.4702351256785913,-0.3431107294893209,-0.3739042675354505,-0.3043239492585155,-0.25947499131254675,-0.1549044254709924,0.07753168630055338,-0.34147147871666095,-0.5487487182852733,-0.2543538912108784,0.10442353910000876,0.10442353910000876,-0.38584298948682333,-0.18075583423398683,-0.4489979477767124
74,-0.054321534296441494,1.2697341395311061,0.0012985779503852236,1.0686474645022972,1.2597843821903396,1.0331814401361412,1.422829470624781,0.01735447933480987,0.7139666202299123,0.6790988988961916,1.0996998037094132,-0.037015002883824095,-0.3705385975703426,0.39018129685132125,-0.20865117695716226,-0.37159337384119623,-0.3894248069059373,1.7315087304294312,1.0196872113645552,1.2597843821903396,0.9318538838150148,-0.07450491630454649,-0.07450491630454649,1.4515053861033467,0.233898338455886,-1.012549825594078
75,1.0765032208776508,-0.6886462356815892,-1.0500349885293936,-0.6055485141671443,-0.6911306847675304,-0.4861226635099327,-0.5803484650321572,-0.9374274885952381,-0.3104593035229706,-0.20187517353046255,-1.0164099963347724,-0.06406728571263387,-0.43899768556637986,-0.5145815455501417,-0.2536831792876358,-0.2975502069389827,-0.3203826300623962,-0.3456388815545146,-1.0599394750535165,-0.6911306847675304,-0.5713957390625469,-0.17019722592977948,-0.17019722592977948,-0.742138310473524,-0.39564782120964714,0.07249614790976894
76,0.8883944540611126,-0.35769050100608635,-0.8827579354478178,-0.4128735444994073,-0.35909093059468844,-0.3083628169228518,-0.2240152038508297,-0.9035053701051694,-0.6147740657271923,-0.5154685147020368,-0.4838670092222757,0.03118673798044315,-0.15948138953366886,-0.17383096523684238,-0.2771908387616717,-0.22454007952100333,-0.09256783378343002,-0.030325453154960484,0.17888255793039162,-0.35909093059468844,-0.42252964741679905,-0.27123725517103286,-0.27123725517103286,-0.39694115599612695,-0.3696984881114505,0.7130433362854887
77,0.8603899844951327,-0.2121865968693658,-0.8350500855331443,-0.14202197024892035,-0.21461271529659992,-0.03777465663179389,-0.0643801377362663,-0.9026102828228578,-0.253211973948731,-0.14760472581609616,-0.2001135033077193,-0.583155334968709,-0.4536929258831073,0.1722930268175624,0.3367135012984754,-0.3898233115952871,-0.47829012954092337,2.8012966701740525,0.6261665220856214,-0.21461271529659992,-0.14773976747947246,-0.07164121478623982,-0.07164121478623982,-0.08066074541501128,-0.19740946146672525,-2.747984019327138
78,-0.14012994340386753,0.15764430427234724,0.08890827060291702,0.0005024799859185533,0.15295989178503988,-0.022608462862178814,0.17331693556018427,0.15309083579990984,-0.27028574001952804,-0.29216354194691035,-0.001138512528552777,0.2708982723882335,-0.3105801449112703,-0.01962706232028864,-0.27618360087242305,-0.33127761363018216,-0.3042033324335802,0.46593245637670394,0.4506997745186427,0.15295989178503988,-0.0456402442381522,-0.242115891832982,-0.242115891832982,0.19281066078849163,-0.21925251170405452,0.4368569897674358
79,0.9735365694850382,-0.3444296193021575,-0.9669728566895339,0.6963964005542899,-0.3501871908755671,0.8431461552028734,-0.19287417988044914,-0.9927215113400694,0.8646174928588277,1.00590763622309,0.23899076539410533,0.09304629692299932,-0.22216011798645507,1.6665620838473583,-0.23452710133900928,-0.36956615064735865,-0.41614137202121027,0.780865736823501,1.922650959556714,-0.3501871908755671,0.8981424937001143,1.285328964585614,1.285328964585614,0.5104117742104876,0.9215335933634793,-1.3851976728520323
80,0.24642507808639239,-0.03395576478993026,-0.3019575917736645,0.3286836289027356,-0.03826538305633545,0.35682747511443474,0.035994031191633226,-0.3328357583480917,0.03905071793899038,0.07044195351933481,1.0523328249479809,0.3081278265371578,-0.3734538089606528,-0.38545199980591294,-0.3202956982745519,-0.28616450548757577,-0.2385576998948014,-0.0008929114865969266,-0.38183166244848565,-0.03826538305633545,0.3755945321832649,0.3505682653112966,0.3505682653112966,0.373071487566742,0.19595960028737164,-0.5686589129568309
81,-0.37823603672313627,-0.21114153084091522,0.32659869415649945,-0.7154804246907956,-0.19952556160293183,-0.7424968401852626,-0.2747322048046635,0.2554348977088875,-0.49819346845998824,-0.5221226616522867,-0.6777320229699603,-1.4979768053318558,-0.43333636686882554,-0.32227120641426543,-0.20955276361631067,-0.364101212198276,-0.4104802299024261,0.47257672987722493,-0.19079673089782037,-0.19952556160293183,-0.7429366053795695,-0.7548067630329355,-0.7548067630329355,-0.6393436386341862,-0.6147908188457668,0.38770884716282894
82,-0.1748769979598431,-0.31181895417884425,0.12155163214337697,-0.24988335091965985,-0.30247747592641533,-0.27022630850941354,-0.35007812264853616,0.09990403526528997,-0.9914012422376104,-0.9830291694826179,-0.19176324158295222,-0.6179976513963804,-0.45171674986666427,-0.4226869343036537,-0.3170724196003828,-0.3710781944702428,-0.3870818269716161,1.7214563841944985,-0.5390277390231716,-0.30247747592641533,-0.24816743723036044,-0.11368778526754358,-0.11368778526754358,-0.21789021369943704,-0.2518724719581821,0.19453017891242133
83,0.04308591084906496,-0.12978242954803493,-0.09448317917009362,-0.45767972096015713,-0.13242621691539636,-0.44775699530276325,-0.11037773293588624,-0.047264244728715946,-0.5635527675148003,-0.5544934197496805,-0.17513451859549642,-0.6177434645393889,-0.3305781171799518,-0.1934218805354275,-0.2486594288141334,-0.31474437990672194,-0.3121750104570308,-0.018482667109553683,0.1281447737131394,-0.13242621691539636,-0.4794470373848325,-0.5046498254868731,-0.5046498254868731,-0.32654456281085753,-0.4613383366655167,0.24965261957736015
84,1.7044093092872694,-0.6117996394051879,-1.590242390345428,3.1964430793335032,-0.6146297115110495,3.625678981520946,-0.39431872766060944,-1.4571113270496583,1.557611501889967,1.822293668021708,1.8770770211430032,1.2823683701727062,-0.24602150057826708,0.20548232421980786,-0.29900666102872037,-0.33083092926801727,-0.3763643574633718,-0.2592027348469646,0.7985343897550912,-0.6146297115110495,3.4379235588257955,4.973627341988521,4.973627341988521,1.4603079325600754,5.824624959492437,-1.3063156943170198
85,-0.08640400155396043,-1.0011505542367938,0.041336232090453874,-0.8329817786046726,-1.001575559729413,-0.8291654964949706,-1.09867050960326,0.28620751161380253,-0.7624119188787812,-0.778340981416944,-0.7328138662280641,-0.39154360386802123,-0.22817118358210062,-0.4732655685866195,-0.28688935118003156,0.10013362826839149,0.2907294572144723,-0.5507354521764359,-0.7416666820794758,-1.001575559729413,-0.7702011735139329,-0.13874612514345924,-0.13874612514345924,-1.1575735654473838,-0.46422195223812585,0.2698245509024984
86,-0.41882450965641194,-0.46906383940116375,0.3893038211155128,-0.4704228682369579,-0.47315809686269716,-0.5136926570583296,-0.5656544794544031,0.4252141079197916,-0.6921081783186211,-0.7237883173586611,-0.37306409457061446,0.11373237631420259,-0.44426425044208395,-0.4086425441114617,-0.2267022990902638,-0.3633081130546354,-0.45658681330960876,-0.5132856806845172,-0.48056841693670543,-0.47315809686269716,-0.4566808009476,-0.21890314360746793,-0.21890314360746793,-0.49539175075888797,-0.3663057989712449,-0.7310335877248502
87,0.49495229792817974,0.1992049517418113,-0.5184026908741498,1.3890551506447157,0.20079762890501068,1.4559562935875032,0.34372453400032354,-0.38477255698823976,1.3888825250517696,1.4144928516502966,0.43440613458631344,-0.1994177962413009,1.8780197964510827,2.6924834865712786,-0.15768121403269933,-0.2331847708044562,-0.13058891809631473,-0.09532893933499531,2.690693441629602,0.20079762890501068,1.4406395559916039,1.2111872444167004,1.2111872444167004,1.2342575623252963,1.2084630836015366,-0.9602163969162242
88,-1.227531464350693,1.1465445184818333,1.242538051876196,-0.5554633452633915,1.142634257617324,-0.6799716595787629,0.9894719657070726,0.9137391364499715,0.18668857109057935,0.0492182247541615,0.6597478472195742,1.07599498859767,-0.436425938501563,0.16598355900758757,-0.2862812208051288,-0.38460921288389416,-0.4590246418724749,1.6718091237790227,0.6480772772449362,1.142634257617324,-0.6852883708170774,-1.2826999454830301,-1.2826999454830301,0.07750560575611122,-0.7405921448682663,-0.23919472495691976
89,1.2933288139916228,-0.7999382694014178,-1.2425201711852984,-0.10692347375549742,-0.8042396530481416,0.05731802603587304,-0.6794546661819114,-1.2610066763196295,-0.12967825889920753,0.02711045264950235,-0.607614016919059,0.5884655888473919,-0.2927731305197209,0.09814974639798175,-0.27302501490080444,-0.3362880894072481,-0.2992537837166663,0.6946865396434809,0.586512181231796,-0.8042396530481416,0.05928940834573777,0.8231599714847693,0.8231599714847693,-0.29490536035090126,0.23081374097881485,-0.19180537554725352
90,1.4451096157080459,-0.44696628597957494,-1.3661637544662846,1.7283190330628906,-0.44548905995649996,2.004865379054477,-0.23842623008703245,-1.3978117161969246,2.4188323148936606,2.7083818281812158,1.187922315989686,-0.01548342894440892,0.06305221508054391,-0.35071998046849306,-0.031146356813814335,0.1207599418080508,-0.17106624552484065,-1.1502387042053501,-0.2591891494492838,-0.44548905995649996,1.7487042263267185,2.4568862086404213,2.4568862086404213,0.8383864043336046,2.199352903929654,-1.245895935007669
91,-0.06202273304248944,-0.17808785873933336,0.015382899511856962,-0.2957758375522699,-0.1750083573064382,-0.30206559735480487,-0.18392451371133312,-0.331834812118338,-0.3405894780487539,-0.30471102575252534,-0.35177604527231,1.1127282066002868,2.123134981136058,-0.20057110853573062,-0.30982910680831266,1.1293815361807744,4.1131495427637015,0.33253592776279467,0.0457979117367628,-0.1750083573064382,-0.3103412697920015,-0.2861950140072281,-0.2861950140072281,-0.1709673777347378,-0.3330706526507249,1.0770664912747674
92,0.08333539296990929,-0.6072846184978569,-0.12658439848612404,-0.32300150708581404,-0.6106777067832639,-0.31159731464701623,-0.6370536855653711,0.0018623036349698725,-0.5898481938899766,-0.584956929645742,-0.20242373284732312,0.9816519249775545,-0.36248625412907515,-0.33945518825891646,-0.3218300448672842,-0.2964936427838108,-0.19314111519353366,0.453797873851436,-0.21610272188435012,-0.6106777067832639,-0.2880049876796391,0.12382773177589754,0.12382773177589754,-0.39730224175895884,-0.18872077315248903,-0.24339681236596283
93,0.990681341265882,-1.4959114391475108,-0.9845846982210991,-0.8634287863959176,-1.4961632646085397,-0.7592664242821201,-1.5334098804754406,-0.7763097197916372,0.2025069125900689,0.29758595852063613,-0.9926755402653863,0.1038396251428374,0.891103922800179,-0.41024193453196783,-0.3128891999868385,1.379566023969483,0.9413652436167771,-1.04897737888855,-0.45534395473907535,-1.4961632646085397,-0.7600125616495564,0.562592026840875,0.562592026840875,-1.3929812652458735,-0.2785647434249055,0.695923790977933
94,0.48716419923678744,-0.6938091303299806,-0.5112738002737323,-0.7113747000914057,-0.6936117254248455,-0.6539264520113024,-0.6739940473098645,-0.33408495664752036,-0.44604508888899436,-0.4084884796882155,-1.1507984912522637,-0.7344886101229489,-0.4104330313855058,0.1059228250587739,-0.14809232262140765,-0.3753049819139576,-0.4360811019060934,0.833807026947442,0.5443009230931811,-0.6936117254248455,-0.6767423337222979,-0.30878124667882245,-0.30878124667882245,-0.7633498914119162,-0.47390630610120266,1.460488704004124
95,2.324984404871838,-1.0976702067990054,-2.0985238017046273,0.049831484909937246,-1.1000723977277935,0.36253717580769507,-0.9018789781952513,-2.187285206356626,0.003528827545488866,0.3082207017021853,0.022648376108773627,1.0143217917313296,-0.05397112190326034,1.151563825741507,1.0337716252950204,-0.3405113751941297,-0.37020328409337283,0.046952645903470785,1.2237685829509135,-1.1000723977277935,0.20312628431845545,1.514121012468532,1.514121012468532,-0.38102739959586274,0.5903502361075106,-0.7678766458411751
96,-0.02965106519763331,-0.8542985211334826,-0.01601961113622888,-0.49239873712450777,-0.8560840725624249,-0.4906134708923836,-0.9282062657841443,0.08085063991828018,-0.5816308742550181,-0.5848893811565228,-0.2525759469911086,-1.5624126258948325,-0.33908268903461464,-0.39322824864689115,-0.33252614786978846,-0.24092414744539836,0.016683128549457325,0.5777135666468577,-0.35125366947926584,-0.8560840725624249,-0.4376293921600836,0.1873833290992875,0.1873833290992875,-0.633363855965139,-0.23358332748792907,0.44128199311029004
97,3.7618397347464296,-1.8334561900544024,-3.152463086572459,-0.16700544652467356,-1.8353738643788486,0.3044183306440989,-1.695750637503946,-3.29938695690263,-0.3405894780487539,0.10073920493356067,-0.19186685324442063,-0.6918075966109264,-0.39873155696698326,-0.4661807241817425,-0.311432636772244,-0.25995827248535275,-0.4004525926470018,-1.0576593933709075,-0.6469602184050088,-1.8353738643788486,-0.03193234127080164,3.019721843685788,3.019721843685788,-1.1235014330397812,0.9978335941745463,-0.5240523911606713
98,1.7257331784396475,-0.42193836301936366,-1.6046208209247197,0.911018151568985,-0.4229632512951998,1.1964699224871902,-0.16242416662239392,-1.453856884711384,0.2815986200875156,0.4850470707637377,0.7801933519043938,-1.6876457656946844,-0.2572652124371147,1.4033691618429494,-0.19705827907249107,-0.3702806162525862,-0.402399042042072,1.2106291899734363,1.76315218991671,-0.4229632512951998,1.13859118231443,1.676176132562993,1.676176132562993,0.5700799867252803,1.2845200059975912,0.1871842018455669
99,-0.20631480536641086,-0.9655691634117266,0.1565825082921814,-1.1839183294648443,-0.9542354047121887,-1.1801615415134714,-1.074622787245318,0.3427987131622895,-1.2143645342345917,-1.2150926778427271,-1.1499032533505902,-1.1370999327878295,-0.3395643905446722,-0.25804271482210556,-0.29141262438281373,-0.30514264794400936,-0.24721294496548546,0.2705292386868006,-0.031190005357118716,-0.9542354047121887,-1.1178867401202097,-0.696926455385715,-0.696926455385715,-1.3590952648989465,-0.7134813554466587,-0.6526554863585212
100,0.22043749750829547,-0.4961699487137372,-0.28021992958569675,-0.7081426390611246,-0.48904329461659807,-0.6747934380686014,-0.4878483798029039,0.4049360141223294,-0.4397177522891988,-0.4815682742673388,-0.5229997583659471,-0.08659932208550197,-0.44371821657154714,-0.5375417388321997,-0.2682418397646244,-0.2716225273279245,-0.2552672612704192,-0.27099359723354666,-1.0930650875601926,-0.48904329461659807,-0.6780371917664527,-0.4797515193499844,-0.4797515193499844,-0.6175929921174101,-0.5208860624744213,0.3338964073542861
101,-0.4075750990394617,0.6887301786190959,0.36694953825519794,1.7573354525327038,0.6851599583061088,1.6259696302959488,0.6970919701178017,0.5881994904106567,1.2623357930558547,1.106169045610974,1.6603144664729168,0.8653988336438143,0.4933009173814118,0.8992850048720528,0.27561950370359994,-0.24850101752087014,-0.18323805721329123,-0.167086412520152,1.1486284081497253,0.6851599583061088,1.7668434244653997,1.0300514724946064,1.0300514724946064,1.458937259717487,1.286240868992946,-0.4666545501071422
102,1.3131707656145202,1.046882024621556,-1.2660517652148644,1.427332532182475,1.0416299603695967,1.6646335408548325,1.5130458760867158,-1.2706059915454901,1.5079853328271882,1.72698745644464,2.1358874987731773,-0.01226734934572058,-0.34641739593855053,0.8895689083768813,1.150091405257338,-0.3755547725946393,-0.4409083564969165,0.7037806099879714,1.0653635878060164,1.0416299603695967,1.2828842529750302,0.33796812565983836,0.33796812565983836,1.3568761725469867,0.6117046621246037,-1.343576848702625
103,0.24962917427629278,-0.9093089395704224,-0.28937712609623706,-0.3054191470007804,-0.9104180481606999,-0.274281308756233,-0.9510386994455589,-0.4022142150706627,-0.6117610462498664,-0.5653572380075949,-0.6866112851859895,-0.9819990751291914,0.1074095854386959,-0.3764950965175908,-0.2756121222567735,0.2336559434817396,0.9953695425778338,-0.065344489935761,-0.29460555133092114,-0.9104180481606999,-0.24003136025549832,0.539529366118034,0.539529366118034,-0.4961876837984366,-0.02691341148220025,-0.2647603307283616
104,1.538834245221153,-1.8013128755418524,-1.4741081179772315,-1.216549339794234,-1.8025065061745607,-1.0811387798679268,-1.8414006620574612,-0.7232252502262048,-1.3762580058231868,-1.302148648452402,-0.7102871156094538,1.3178247289405736,-0.4227141679022054,-0.48504004467705825,-0.26884036621755264,-0.28931075497510217,-0.24093146574886726,0.031571656704688755,-0.6327829967256544,-1.8025065061745607,-1.0880677393790181,0.4516706871420654,0.4516706871420654,-1.7653527744864832,-0.46537728608507994,1.5443334177918804
105,-0.9815615741825164,0.5942262291453061,0.9658083087903647,0.16917973344752765,0.5922690573470227,0.021603173582914987,0.46940350292060207,1.7271930199846375,0.08123296025033858,-0.1438388024761036,0.29748596234817926,-0.12472070565179208,-0.2380240066630431,0.21160129184211848,-0.26051212848335037,-0.3290763085597274,-0.3118264648381732,0.32427455169195113,0.5128068055683864,0.5922690573470227,0.09400141394857695,-0.3877169579951352,-0.3877169579951352,0.4524757768268408,-0.22412795240437586,-1.0261137073361724
106,-1.9555469582576872,-0.6322596281333808,2.073267083422212,-0.8797525577913462,-0.6332501058522095,-1.0425707057952887,-0.9717094576588083,2.8767300497641344,-0.38277172289103695,-0.6609605868844245,-0.9823938306804241,-0.02544438406269493,-0.42563164606882237,-0.11339020188780691,-0.26487860667256874,-0.37378548610017176,-0.4391421073948923,0.5609573399245522,0.17467647856498217,-0.6332501058522095,-0.836159312078767,-0.5704220938617093,-0.5704220938617093,-0.8225884871304695,-0.5966978788163784,2.85297220918556
107,1.7584039522502248,-0.12406963759156493,-1.6382778122638402,1.5067488576496026,-0.1276313127578887,1.8394547359615463,0.20455226846432548,-1.2932689202418466,0.7139666202299123,0.9076821327096456,1.534711571801251,-1.091777100211572,-0.329463917175979,-0.14961534904303062,-0.2196664542044359,-0.32220387351772395,-0.3397245974947785,-0.09758085988496656,0.15129936340237482,-0.1276313127578887,1.5652451008646486,1.7459248770309441,1.7459248770309441,0.9203885988954768,1.6140761037694153,-1.1101166658213348
108,0.37717647790112624,-0.23049148941725764,-0.3978233202527868,0.4506081708148914,-0.23790863166712528,0.49360813402120224,-0.1677081279839543,-0.4352804852365281,0.5452376459226492,0.5873645702389041,1.1231845745339262,0.729916629903393,-0.21682071667092254,-0.06053493951735574,-0.28435042123087856,-0.28602373703528283,-0.2892912953135311,-0.2956701469547514,0.36907290196811043,-0.23790863166712528,0.6583096818412144,0.8681731356729121,0.8681731356729121,0.404320217050643,0.5754141820165117,-0.4956723233877089
109,-0.7162137051765443,0.011804127438242624,0.6856897868125109,-1.143642409737138,0.011066503100697386,-1.180820061398658,-0.09654721427052304,0.04088137070534169,-0.5292995182332965,-0.5301543313925678,-0.8651473165174298,0.9853072283429163,-0.4426356016368625,-0.3631638562646423,-0.3259550807183611,-0.36803418216795525,-0.3851058096785582,1.3855644433647525,-0.29861407999261136,0.011066503100697386,-1.2147061684637122,-1.3742218645477555,-1.3742218645477555,-0.9466184401152246,-0.8708885737857799,1.324420011152052
110,-2.5772709764529753,0.2988475859877186,2.837876698108594,-1.3719511205285206,0.3096596104090743,-1.5177484707042361,-0.16355519409743444,3.5417220808789076,-1.6294913798819113,-1.745044169955494,-0.40541913993292894,-0.2617995703771856,-0.4511785489941274,-0.3845453871623868,-0.204085325197821,-0.3749124134242723,-0.3659950873317906,3.0615964074991435,-0.36273984364240663,0.3096596104090743,-1.3415297447218755,-1.6030339099241604,-1.6030339099241604,-0.9401244659981193,-0.9348492463074974,2.0639733855931093
111,-1.874810102883569,-0.20089335518457424,1.9513346971756758,-1.6426235275184513,-0.1854733022518301,-1.711197875320815,-0.5218529113813581,1.83815606996262,-1.8488259367461055,-1.8740112319144995,-1.177634524974918,-1.3718024755762328,-0.4533284198587786,-0.4593887079484321,-0.25748410176138187,-0.3671434290670727,-0.40349695578986416,0.8630286051663935,-0.6118369644315056,-0.1854733022518301,-1.5763977197408738,-1.6996890295726863,-1.6996890295726863,-1.4748934198908012,-0.9861770704626966,4.018277803823638
112,-0.012395977075924351,-0.6562551632442318,-0.03022610398570089,-0.8314217220570926,-0.6564953386587773,-0.8209223293022072,-0.7064309911503586,-0.10712921409634447,-1.1521391725904624,-1.1231849815291994,-0.7712836340866801,0.44887258447030287,-0.4119242261239749,-0.18325403181402364,-0.09554320693423454,-0.3625176882229461,-0.38174956579196107,0.9376368106302295,0.10121624998264309,-0.6564953386587773,-0.8024429733169003,-0.5076804818697864,-0.5076804818697864,-0.8616709241733698,-0.569942641060228,1.662947507767607
113,-1.2985663560833056,1.119301930052229,1.3222794151564177,-0.005692016733103626,1.115528836512824,-0.18431384610923482,0.9433415411251307,0.7511295228427166,0.675619126069171,0.5277512241373203,0.15849225578185988,1.145917056060239,-0.23732440788243933,-0.2566546946369052,-0.22439778002981292,-0.23505431220748702,-0.22606320159441323,-0.4525604551333977,-0.03698791605661576,1.115528836512824,-0.09330193746106215,-0.804375241995273,-0.804375241995273,0.5146404285396955,-0.4409623881840945,-0.041271786645701726
114,0.3861746532673347,0.9412861875325919,-0.41478846437480066,2.5928028532467304,0.9342301143716855,2.635793442097335,1.1620949201941944,-0.8097479564645488,1.5877416764157504,1.7042066296119018,2.8973226457399868,0.8833941585580548,1.0078407721986682,0.19526326938202493,0.1797433126126285,0.0318377389772044,0.16092413323922244,-0.5791325702015984,0.5559011980350146,0.9342301143716855,2.7652469461286686,1.640407028105538,1.640407028105538,1.9110052738142194,2.347737934244104,-1.3569312344761306
115,0.2296840568208446,0.10847572706921571,-0.29587775341635536,-0.2679044011598968,0.12009500033849844,-0.23624145641279426,0.19507974885171783,-0.14445318561598955,0.23845768757484687,0.24036152922149456,-0.11437450292708203,3.3865336296648874,-0.3840869120892578,0.9359916009889565,-0.23495530540379017,-0.38168444167403803,-0.43946783955514845,1.8939202628290215,1.377845442242054,0.12009500033849844,-0.2965906742994945,-0.47539670973752607,-0.47539670973752607,-0.02175794393401831,-0.39060387578951894,0.22188014079255367
116,-1.0377983167609404,-0.8960314147708084,1.0244186620475046,-0.3524706730823721,-0.8944341257771432,-0.47046381115966257,-1.1113315237320478,0.4843533917608512,-0.5190528192760121,-0.5650098177162128,0.030879704447615338,-0.7959907341177047,0.6485147737345874,-0.5089964494015762,-0.22759984655943663,3.029495645723498,1.493273559326823,-1.1940072718636126,-1.0118507399268075,-0.8944341257771432,-0.2813640984269982,0.45857304986292585,0.45857304986292585,-0.5585816549057342,-0.07435784679883797,-0.34332656249516696
117,-1.2306076008774847,0.07431419994673533,1.2194199416436746,-1.332756788156945,0.08850625981081013,-1.392786178202799,-0.1235102591932063,0.6539079089568521,-0.8110837382931484,-0.8562139964431801,-1.269799930550719,-1.176935951630256,-0.3883871018506677,-0.569741022013833,-0.32735423841971817,1.0440647266422096,0.02829418099990682,-1.325899574835131,-2.054477848967206,0.08850625981081013,-1.3804745680788981,-1.5746405813739686,-1.5746405813739686,-1.1095376806296058,-0.936604290293127,-0.6347547455319669
118,-0.19885753415925247,-0.18513374801072316,0.15088124493193358,-1.014249688693454,-0.18233976582717365,-1.0151673357121114,-0.21573682899039254,-0.324173591745262,-0.6358651868828664,-0.5971813577587594,-0.5431277399560451,-1.1391597433063485,-0.4447329374099269,-0.5529870260413847,-0.32842911524074525,-0.2146112878469126,-0.19756342694277257,-0.47953030998513224,-1.5583886670222575,-0.18233976582717365,-1.027997657417628,-1.0855220444288203,-1.0855220444288203,-0.779948710318039,-0.7708710072025255,0.6644822751357176
119,-0.2541543596365333,0.41977895614709393,0.20853913012988978,-0.08901530193891107,0.4199655398738329,-0.12518526332063837,0.437357100170013,-0.019724317296189037,1.7082623719879475,1.6522076097085876,-0.2139854474489318,0.40787553207612326,-0.3357565513306496,1.2949556793736354,2.6238313891959013,-0.37828622831037917,-0.45047826478173036,0.717273593009307,1.7329548852379537,0.4199655398738329,-0.19063842745744355,-0.5508779366617894,-0.5508779366617894,0.18331823874038145,-0.3809453145259832,-0.5289303039037504
120,0.7129700002923686,0.4324929436886062,-0.7253999848382097,1.0938105824053084,0.42074831687640685,1.2015702469988074,0.6565251254379126,-0.5888560833331876,0.7139666202299123,0.7810061514122258,1.5887613731889978,1.0908983706117643,-0.24703392120001524,-0.20815445961876625,-0.10948945990090748,-0.26150306376888655,-0.29907444162021507,-0.575221635546833,0.0901886252753512,0.42074831687640685,1.1566099022538916,0.7162947622988218,0.7162947622988218,0.9880288853953133,0.7632717647092173,-0.8186523524949174
121,-2.1767142063332656,1.004846058492074,2.3771514022833387,-1.3382909325442747,1.0007642456164973,-1.4644547865526123,0.6076481285160957,1.3293259586013488,-1.018925563927199,-1.1006881942930415,-0.8772123372898398,1.3385452205320845,-0.4617535395489351,-0.4922174684306874,-0.154311978259626,-0.37831830501939273,-0.42346512593945396,1.7887639219651916,-0.7932425136740069,1.0007642456164973,-1.3904164067956357,-1.8120343511565629,-1.8120343511565629,-0.7386177014596244,-0.9766135340816896,1.9482045690963565
122,-0.4929108251108464,0.12889269724851501,0.4344006069348876,-0.8888829725792189,0.11933115218681917,-0.9186407234038872,0.07546682499000826,0.32189412882677026,-0.693112518988041,-0.7149328950137257,-0.8623480814641792,0.30993360722708985,-0.20750911432858876,-0.18600440136085084,-0.3206969443566043,-0.2465326588964854,-0.22290796611950675,-0.353216961585537,0.1140158929662858,0.11933115218681917,-0.9499703747190122,-1.143830911143262,-1.143830911143262,-0.5729342628865317,-0.7652129732538582,0.22285678509650397
123,-0.0327898750183417,-0.5063968125452929,-0.024279603927610686,0.04188656203067571,-0.5087966401160309,0.03318403557903568,-0.5410716178932341,-0.11156333396260341,0.608511011920607,0.5974363967520997,-0.3517467734063398,-0.5128182988829876,0.46581127114377163,-0.015703666651437343,0.08175792257639203,-0.024217522829132358,0.1082207615306426,-0.5195400864823585,0.3952247719490493,-0.5087966401160309,0.1057411295320763,0.515822410591589,0.515822410591589,-0.06772703243716055,0.13508667157923626,0.7113617035000467
124,-1.8865298873072416,-1.0279747277250384,1.969916394582875,-1.2989926017894418,-1.0304196296585486,-1.4069691298718818,-1.3569479442427763,1.0771875856863011,-1.3657161062423064,-1.4026109656776433,-0.9711753432803855,0.23038867063065516,-0.44570636172195366,-0.5092718121372857,-0.3229418405111703,-0.32523934836349305,-0.29816310796191003,0.34306162139938245,-0.8924486228597857,-1.0304196296585486,-1.2468200113899173,-0.8392784168186572,-0.8392784168186572,-1.433482245114734,-0.7790220188063371,1.855518885585825
125,-0.6946717556485072,-0.23732141652873076,0.6581389438417968,-0.3154028588665265,-0.24090359829489877,-0.3956961399958983,-0.35869813780417176,0.5448418136852607,-0.009157560796075392,-0.08868571159971075,0.038299282376519465,-0.3072637476671206,-0.2174694523761828,-0.4483191803542831,-0.2894692439950473,0.02596958016553983,0.07981902799887945,-0.6858085101632767,-0.6020675368148942,-0.24090359829489877,-0.33128786181498565,-0.25945451786863066,-0.25945451786863066,-0.22696556688700117,-0.3320899036808884,0.9398632706991467
126,0.2284145073629211,-1.8355318318538656,-0.338047755007202,-0.9407495943531754,-1.8353831019392701,-0.9014695798097135,-1.991280990412905,0.2947597816940783,-0.6761300563843786,-0.6964952927462593,-1.443795269875955,0.4551365164571769,-0.3420030543296873,-0.4101787067519468,-0.3280247516028677,-0.2008418635977946,0.1960251780776711,1.160483254371441,-0.4161518815208282,-1.8353831019392701,-0.7290393609586997,1.544669843869264,1.544669843869264,-1.4959654213490785,-0.017969489958218666,-0.18211900070182863
127,0.4252903443064121,-0.676020960362315,-0.42790481342369285,-0.3470559726666103,-0.6726653766361967,-0.298588489788876,-0.6669531138386852,-0.657039359023345,-0.5763137829951571,-0.503099598852041,-0.5825579092409505,-0.48005063790298275,-0.24487177512005975,0.11318616320318552,-0.3074900197759223,-0.32208217076859935,-0.26069193009584435,0.584039779264568,0.4465952350107872,-0.6726653766361967,-0.3115467156270797,0.15762665151510138,0.15762665151510138,-0.438608350399867,-0.18776971014363075,0.042060657790968466
128,1.2418624935410303,-0.13891471525611096,-1.2045306838747984,-0.3965991124537463,-0.13905400196062598,-0.2501073727268952,0.0950602399426204,-1.5836851515963852,-0.48559094263771774,-0.30253974336781625,0.13545944439670465,0.10093331662630291,-0.1255618070347216,-0.24107996201949092,-0.3138012130091593,-0.16883541341806735,0.18762001470522746,0.3669799456339978,-0.019456000037552563,-0.13905400196062598,-0.40804492989572705,-0.37302241709549844,-0.37302241709549844,-0.24027217007862126,-0.3975403904602062,0.2919665552003401
129,0.7319213793984731,-0.01221977354579417,-0.7417141131323659,-0.1927512613665104,-0.014106427393294662,-0.10235199143286464,0.14800870799269375,-0.7871030008573976,-0.014635776416982842,0.07871460991761045,-0.4335486963841209,0.1821906441416804,-0.18312158212036175,0.05275736093751093,-0.3004438253665333,-0.29337771252008343,-0.21404156690115875,0.26264153243528304,0.40893827365068186,-0.014106427393294662,-0.21503721138711981,-0.2888547856617635,-0.2888547856617635,-0.03022156569106229,-0.29935049303710515,0.028699329964038515
130,1.1296886612726393,-0.9377815215601013,-1.1196159505807322,-0.9204623640598013,-0.9306476696221359,-0.8044733172991406,-0.861530800514477,-1.3764889488392582,-0.888958650874696,-0.7484359937473877,-0.802582478669082,0.15444755889269954,-0.3512829163440818,0.28127724512948576,-0.3057357502009772,-0.36375305360745636,-0.3858788183453448,0.9543979074266046,0.602009278582756,-0.9306476696221359,-0.8556043982664717,-0.339419737649751,-0.339419737649751,-1.062962808573987,-0.5465739386884576,0.5657076430562129
131,0.6121898852168328,1.8022208746428292,-0.6244281927944705,0.24184264093290772,1.8014531430554075,0.320622965741066,2.2013950618761813,-0.7929307309328643,0.10759686359313261,0.20324066909149827,0.7650512324242918,-0.8490043660012289,-0.08900630571503182,-0.19285473273605747,0.034091699399243496,-0.1756424135858057,0.0024162181841606493,-0.10130661783504451,0.04806304153517368,1.8014531430554075,0.12767082876717356,-0.8517582154631334,-0.8517582154631334,0.8822499570532837,-0.39712740803362273,0.21276919368380112
132,3.5356191029261166,-1.0352945784021583,-2.98658432592475,0.7844121498409172,-1.0375739109138422,1.3728616697580753,-0.6711807963410825,-2.9966196460852426,2.738714332164548,3.5694683742878337,-0.39544917019611825,1.0493155792897753,-0.13932790144181828,2.3432696184241157,-0.2741526429605498,-0.36888857339334974,-0.3874528825314881,1.4272848550520598,1.7334112286044696,-1.0375739109138422,0.8843436396151796,2.4494785217847967,2.4494785217847967,0.02851312997367618,1.5108606338754458,-0.593228425635689
133,0.2366395973179288,-0.4168528208683137,-0.2803061647847763,0.315884449014139,-0.41714246668580296,0.3407392783335452,-0.3986681650067574,0.3353064045479688,0.7906616110823305,0.7013374062754038,0.01659014949487974,1.096698061526186,-0.05230717444655192,-0.27864660370421235,-0.3094278381523267,-0.08676560196546099,-0.2863418983536249,-1.108412123203472,-0.07966151996313879,-0.41714246668580296,0.302942315695428,0.6612117369299807,0.6612117369299807,0.10327429171886457,0.2935544997167123,-0.39725470403041596
134,-0.017236871210711505,-1.0525792963176732,-0.02983394594603121,-1.0157292853505262,-1.0470569169261665,-1.0013841608151737,-1.1463333386600731,0.31363221135663744,-1.3804308438157982,-1.37197136583787,-0.8005482135225391,-2.16975158436857,-0.19217940128761055,-0.5177488722640237,-0.21605444805473434,0.5667334296875194,1.867023519895764,-0.017411476894450113,-0.8697588699809964,-1.0470569169261665,-0.9403432369892386,-0.3518666724743941,-0.3518666724743941,-1.178791355135665,-0.5799100676912861,-1.0443861980088347
135,0.5008690093350474,-1.0123020589111411,-0.5303225526936419,-0.7399631313273121,-1.002378147480728,-0.6806405286664432,-1.0337765951938527,-0.9615856136745888,-0.32408338290114785,-0.2123384805955402,-0.8544701738551388,-0.5922130205758834,0.03022022239018893,-0.5026200516519979,-0.32740105572865,1.0112542157010633,1.2517153889089478,-0.7777764320689959,-0.8196972659322584,-1.002378147480728,-0.6774351860777655,0.002607024630355628,0.002607024630355628,-0.8321483184630609,-0.389565898454472,0.33881514198073176
136,-0.43796014095432245,-1.0467862410736863,0.3712917173759961,-0.9294179799310266,-1.0437887217298618,-0.952002005381119,-1.1910477046948977,0.10687424229805981,-0.02422264805896677,-0.048817335620954944,-1.1828393774465136,-1.286321061005387,0.012712722296627758,-0.4236872939456246,-0.2661873841525731,0.28657250651131166,0.36950375137776365,-0.75452152411286,-0.5176922170613247,-1.0437887217298618,-0.8603739074612387,-0.19236388521458736,-0.19236388521458736,-1.0641845366372618,-0.5140150155226858,-0.13954287523672013
137,0.864518137026922,-0.414251689086706,-0.8545370718039172,-0.022763465635849873,-0.4215070366466957,0.08687485504179045,-0.2947842061674287,-1.0376496283846208,-0.4671362100446685,-0.34939250419466317,-0.27919676982516123,-0.5172746500982234,2.7544316422874475,-0.16533512550480559,-0.19136240376933278,1.3403930814478549,2.442411799565284,-0.49798498226360843,0.12315521091327947,-0.4215070366466957,0.046723649384179076,0.34868574220693105,0.34868574220693105,-0.05522027536274657,0.04190620003282041,-0.40632429486571137
138,1.280616992755997,-0.7126188538929843,-1.283241429041166,-0.9432462775270388,-0.7202965164043317,-0.8116785939039537,-0.569182745008047,-1.7171388473327454,-0.3243655390876098,-0.11453141608668917,-0.8310663892884673,2.7277223190553754,-0.33106131235785324,0.4554334796648779,0.16146970943680194,-0.36447348587725126,-0.3824550103078408,1.0875788778929474,0.8604844667408558,-0.7202965164043317,-0.8890487540989497,-0.5721714685468425,-0.5721714685468425,-0.9149057500568234,-0.6142361178788684,1.1039572715705173
139,0.38340971577558114,0.06527232389105399,-0.4099715826458791,0.2456197883992606,0.0567210222178626,0.2909452272503768,0.16930230505252553,-0.45639421988275997,0.4126648775030174,0.4586048579408934,0.24001329762272527,-0.6242669338388843,0.07472388802751362,-0.39013563517074434,-0.1362806326571274,0.2400652736978151,0.19356175945064513,-0.8686099360894213,-0.41100539682912635,0.0567210222178626,0.22948455836172993,0.11359972210725619,0.11359972210725619,0.2992892082852759,0.030168487163700464,-0.25450519673245914
140,0.21820704532140206,-0.3047432213464776,-0.2587265529021088,-0.30712915034139243,-0.3151432225117627,-0.2797701029163633,-0.2764409522340766,-0.26158986433717724,-0.6720213953014325,-0.6390947029908718,0.5767772936650756,0.7471928030255451,-0.11936928388579578,-0.4560516671274408,-0.24186855441785987,0.2263176701605096,0.6640776997853214,-0.3804279046520113,-0.5878123850298632,-0.3151432225117627,-0.30606154666358,-0.17026436494627523,-0.17026436494627523,-0.2375438549420483,-0.2933575426065912,0.020904259493799992
141,1.773687363663312,-0.9360349041446313,-1.6559454698276364,-0.5580270679203697,-0.9411208807622042,-0.36166207894225144,-0.7748897102210848,-1.6563053695353998,-1.067061457931563,-0.9091642455393117,-0.44052466628980785,0.5021662592780719,1.5524118969552658,-0.4891917150154947,-0.2939419822487976,4.481253547818299,4.381622865729772,-0.9332176849801226,-0.7685836100529173,-0.9411208807622042,-0.49398584417430674,0.2053289291392443,0.2053289291392443,-0.7649503140874926,-0.25306142560673495,1.6038019476874854
142,1.1766731524908112,0.3782615151221701,-1.1602642328743529,-0.44894007225859356,0.3909972405736772,-0.31031412838391775,0.6953223326119635,-1.2756761666908378,0.4503275969257135,0.6308365899973756,-0.5550630947060033,0.8581276755122191,-0.2431398821553906,0.5629785438080215,0.1124152941958311,-0.3500311233924273,-0.38015054697758277,0.25302669903604885,0.858815606120904,0.3909972405736772,-0.46308913396754714,-0.7929941374565779,-0.7929941374565779,-0.02919957415512231,-0.543809068799724,0.0925470812758983
143,0.28016634173650357,-0.7508283411171807,-0.32718407938177524,-1.1094845016138788,-0.7544409170111672,-1.068923429539548,-0.7670586375282672,-0.5489582556798549,-1.187582156034695,-1.1252454685766342,-0.6899660513355639,-0.24724662597199676,-0.34138836724472277,-0.3487384532992972,-0.30593511435916687,-0.27233368871603897,-0.24999973997224434,-0.2365339271312673,-0.2515217389010506,-0.7544409170111672,-1.0468782218283919,-0.7607970125911527,-0.7607970125911527,-1.1478295194621706,-0.7057712256264598,0.2199714373785153
144,-0.5414062207633452,0.2316842491465965,0.49884740716680287,-0.051595069753667344,0.23072865071195472,-0.12626878958485677,0.17444530196425206,0.49164836879160245,-0.9733231380283276,-0.9965130572207864,0.9309712323957808,-0.7527224267136737,-0.2705325880760472,-0.420208693350844,0.18433787510667254,-0.12044842930379651,-0.15128507406710584,-0.7453638385320751,-0.51120380499673,0.23072865071195472,-0.08971354634863273,-0.3384204239400634,-0.3384204239400634,0.22673273971144312,-0.27090782073106007,-0.6651418319511911
145,0.19848547746893838,-0.5335637140609932,-0.24750770163873256,0.07520542492838718,-0.5338039974844927,0.09735870940398764,-0.5352391541242154,-0.2028968501451292,-0.5093184548869518,-0.4851931070635066,0.13599037462896885,-0.7735543471928615,-0.28792177823386933,-0.4486959620879131,-0.304824701313568,-0.09126882829339385,-0.008990035465724272,-0.5307926433484379,-0.7137532405743816,-0.5338039974844927,0.10219311910034884,0.5401923033909097,0.5401923033909097,-0.1020321364450212,0.1429044944263382,-0.3628870963619289
146,-0.44907482627139395,0.594317409488317,0.3969284356995155,-0.7235352859627234,0.5871802255838309,-0.7569772485541175,0.5879742848626898,0.38816878788242676,-0.6358651868828664,-0.666783547194298,-0.1467996304628433,-0.9175046868013711,-0.43249493368014025,-0.4437077696456027,-0.19905953196715132,-0.3364393333952198,-0.4078661694957461,-0.4735852873290458,-0.7251084511634938,0.5871802255838309,-0.792345261505271,-1.1831688343234026,-1.1831688343234026,-0.3018426861668336,-0.7381592659204127,-0.744917323261338
147,-0.00641156878855422,-0.9514357580217027,-0.019297880372076272,-0.6075993916852839,-0.9432191521915761,-0.6029633978207216,-1.0355122245019077,-0.020162021798000355,-0.12967825889920753,-0.13523316826438211,-1.1504418225378548,-1.6475565634450702,0.21591239543814433,-0.4819522277503121,-0.3161654574773305,1.1372427906400973,1.3728954562895737,-0.792664590170142,-0.9232913603369813,-0.9432191521915761,-0.5361644528075327,0.14572816850523232,0.14572816850523232,-1.0066605472003909,-0.2892693603804782,-0.8535067268137084
148,1.0465797817493887,-1.0698147059571645,-1.0219655929320548,-1.1215569282582274,-1.0703832140384713,-1.0216931382330945,-1.0307947205456995,-1.070380995414971,-1.3951455788583549,-1.2978853775457158,-1.1895741430618567,-0.23900810010064616,-0.4322565072349213,-0.47569962791794274,-0.0947819567586378,-0.3186108042678577,-0.31047218097202756,0.07444888691815936,-0.85719245200399,-1.0703832140384713,-1.066706823513652,-0.525492203468014,-0.525492203468014,-1.615852625102844,-0.6618203333349353,0.8094034684939192
149,-0.045596678501919265,0.7669824763618582,0.0006994972854377075,2.2430533320773343,0.7636254388992895,2.181158653598381,0.8659038081772937,-0.0644769958222206,2.4012563810190874,2.337025276475196,0.7312082462612545,-0.7054543837143481,-0.03610074275954328,0.15802510581442972,-0.09359477152947891,-0.2631490860196363,-0.3287724286287551,-0.7042012721563455,0.6572705340761132,0.7636254388992895,2.167394725080554,1.3045631106875792,1.3045631106875792,1.887537177512664,1.710590844714867,-0.5366303984526103
150,0.2736006558660122,0.5006647674159974,-0.31409050190431437,0.865107026495266,0.4964239296063656,0.8916396939179871,0.6404573800485123,-0.560588059588947,0.5030554010803662,0.5653088313476902,1.9127471253286983,-0.35373390636442553,-0.32973772814834895,1.308302038492306,-0.2728557027513354,-0.37768371609826507,-0.4005811939623974,2.52825058062827,1.9882426971441682,0.4964239296063656,0.8179910344663067,0.33808780324286564,0.33808780324286564,1.0807977827015407,0.39580054101241624,0.6324704898010811
151,0.0009251160841920406,0.16356734508722992,-0.04737859517158921,-0.42081206082178974,0.15883969964455846,-0.41698174542125765,0.20684808575237112,-0.31448766465331185,-0.35976322639459174,-0.3256573909471008,0.533355496075719,0.7068273954726872,-0.30805038274303126,-0.48521351560688736,-0.2717757466481787,-0.023796060394948193,0.07357786722872879,-0.5790441371358387,-0.8254729502817285,0.15883969964455846,-0.4388406152851699,-0.6437882739892468,-0.6437882739892468,-0.14017795226292334,-0.4907359993811707,0.04838736980808984
152,0.1522008650413456,-0.6416817126208662,-0.20122922916019628,-0.5465623936384766,-0.6426240089587627,-0.5232923528195824,-0.6637799168650118,-0.09925290464916521,-0.5515006997292349,-0.5373239249659932,-0.43058392460451245,-0.709888659033916,-0.10226493739146839,-0.522025423920506,-0.3049185400527338,0.9710835704238123,1.2180437486629208,-0.7699858706213207,-1.3083882583598867,-0.6426240089587627,-0.5200711023858009,-0.14809740340653857,-0.14809740340653857,-0.7008814935675346,-0.36924123157825767,-1.6500027322709208
153,0.28693424722339556,-0.12640581421975652,-0.3239917790108377,1.2458875920897035,-0.11271620583119436,1.2719517173345578,-0.06392043049458868,-0.2898265086748531,2.4188323148936606,2.410520201006427,-0.1467996304628433,-0.4903322833224635,0.18670860952231655,0.10388432086746717,-0.3101355489133269,-0.17996161232821434,-0.08315804053386155,-0.32108809023464435,0.7320043426262088,-0.11271620583119436,1.263425778515423,1.3949037355219582,1.3949037355219582,0.9378250512054034,1.207344043942216,-1.0508206862207612
154,0.13133965200823206,-0.09697698988738405,-0.177080595933164,-0.5489164514262544,-0.09300326786863075,-0.5283110843753476,-0.058457898977780136,-0.24489237446739442,0.028505156095685907,0.04823888624334639,-0.8197895448441663,-0.6673638466546015,-0.4256988073215453,-0.5441918242022794,0.10513977656237262,-0.14374435654442347,-0.030818563444588786,-0.369717743148742,-1.4085215914881968,-0.09300326786863075,-0.5642028017800532,-0.6233814940290997,-0.6233814940290997,-0.41024589395406325,-0.5239829739030137,-0.24729250357893975
155,-0.3578556700542593,0.09407004496493002,0.3118331658867497,-0.5335523160485384,0.09161526285984754,-0.5660473122597472,0.06068459743106462,0.44631919901930445,-0.12967825889920753,-0.19118641271129858,-0.5478472749481288,-0.724138316481061,0.03870191753662526,0.14499805098598154,-0.22561732833848783,-0.2377156565352256,-0.16004024014039533,-0.170549410850843,0.8585642819897013,0.09161526285984754,-0.5768949485351899,-0.7463313119721136,-0.7463313119721136,-0.310833503833359,-0.5633363242866021,0.0793233902581078
156,0.9346018085885803,0.3879620832495748,-0.930280473852629,0.04203409268122329,0.3799296814091061,0.16457589215375193,0.6524910250020107,-0.9263093591319752,-0.6833202113813345,-0.5822271351077468,0.33811789736772746,0.6276793577430271,-0.3675628566896942,1.3303926798925199,-0.0860980199344501,-0.3823092858581572,-0.4088311356254459,3.69554693941397,1.9225272439053467,0.3799296814091061,-0.010463627533782383,-0.3568089427178569,-0.3568089427178569,0.3685163651683954,-0.24930410550427978,-0.37233985492737165
157,0.0006421342108918191,0.3287450220609524,-0.046872978776019425,-0.341260540844761,0.3263947851424499,-0.33909624193153,0.3902162676629144,-0.020162021798000355,0.5030554010803662,0.48009922136628214,-0.6175415304488617,-0.56669811093452,-0.42172374441714583,-0.4684097198258822,-0.2566288977710293,-0.3026709856761261,-0.31509094293596435,-0.24169658811168365,-0.8436205628534356,0.3263947851424499,-0.40975641202107416,-0.7056949733380852,-0.7056949733380852,-0.01800145459880147,-0.5009495320861471,0.909624624299055
158,-0.39604485372734566,0.8108973893962715,0.34718421375417047,1.928054106604066,0.8041659122825658,1.7941815480153611,0.8344505964716903,0.33416982715429894,1.2060928016201007,1.0985969010178365,1.7322628309111787,0.4470426443858753,0.7655563792588581,0.0005100084423882433,-0.30601215647403107,0.08092601629747173,0.4622883894523745,-0.2848810477552698,0.5039703377265696,0.8041659122825658,1.899887621722528,1.0374600866068777,1.0374600866068777,1.8851899178785787,1.36728361882187,-0.34130236809980996
159,0.4206338239018126,-0.2158183999621444,-0.4475350113817966,-0.2797041894522281,-0.21943668693496293,-0.2287797858203483,-0.14191717997269362,-0.6945822807932845,-0.12967825889920753,-0.04956244408551109,0.11254451294557484,-0.6000592090641071,-0.43222034277475124,-0.4183087325988771,-0.15343834915992877,-0.3449940728630236,-0.375978765658444,0.12024201831072304,-0.5186466953991522,-0.21943668693496293,-0.28268675663283405,-0.22092395090337713,-0.22092395090337713,-0.20793553978740137,-0.30119587551982835,0.9841642543340331
160,0.9223482883467548,-0.675245043700257,-0.9161415347626815,-0.20788233673485168,-0.6790432075473856,-0.0938961239850646,-0.587054631436289,-0.7043425110272,0.18668857109057935,0.2695079506057293,-0.08447465961146972,1.5589652601271162,0.22209586376604412,-0.5635239281431932,-0.3068284482970069,7.908822386718322,3.487869462219348,-1.2584288785340692,-1.810939098940253,-0.6790432075473856,-0.18438509246676657,0.3338137110653711,0.3338137110653711,-0.44235432659976937,-0.07094556573397011,-0.09798466002956728
161,0.15073452468155746,0.23163887075577652,-0.19684055570307277,-0.7833933029142168,0.23763514103915762,-0.7576449770109047,0.31310864852350845,0.07057816684204013,-0.888958650874696,-0.8813929872935262,-0.3988322157190058,-0.6261914969417665,-0.4600675098760722,-0.38677902635549677,-0.22299153580450073,-0.38489868514442116,-0.4771849886664693,0.5434205533689902,-0.4078345110950031,0.23763514103915762,-0.7856360196467038,-1.0317641200380299,-1.0317641200380299,-0.447611494261019,-0.6979446206365694,1.2992752313044358
162,1.3504831511211264,-0.510124375539367,-1.2887106011971858,-0.4927605381715161,-0.5086704168890087,-0.33962953777161115,-0.32797904182194687,-1.1315769925775985,-0.5515006997292349,-0.4251077953891467,-0.5587954138252662,1.5680078288779051,-0.17800167945746295,-0.301465711711053,-0.20795339549161013,-0.1622503086873343,-0.03500651812683434,-0.2861262415522474,-0.1295405563315426,-0.5086704168890087,-0.4709946903398226,-0.20597494977567807,-0.20597494977567807,-0.51704406163408,-0.36779138959407215,-0.46776910719633513
163,0.9319373225721062,-0.1099313214373713,-0.9238170381967926,-0.27956980553597693,-0.10589118241526771,-0.16639339415311757,0.07181606339757511,-1.0579652951504692,-0.7624119188787812,-0.6505341629112124,-0.11563714408466828,-1.3959058147617613,-0.1029101993976765,-0.5231212003225235,-0.3002706242503668,0.9933595456260151,1.099058038112924,-0.836299575011383,-1.2633814805870989,-0.10589118241526771,-0.2870690434870797,-0.3110835762648774,-0.3110835762648774,-0.15907275644219937,-0.33281389227179575,-0.4211863807402399
164,0.4745594128056365,-0.6274941550687605,-0.5060201114841327,-0.3579021222916688,-0.627608273014308,-0.29977504608336847,-0.5993811822072156,-0.40981103024075693,0.18668857109057935,0.22630975619963395,0.030972450124215147,1.4258527796959275,-0.2755769572345491,-0.2910721256476414,-0.2557249501872516,-0.24572684327634356,-0.1725187058466146,-0.14801537754795155,-0.10102594169524341,-0.627608273014308,-0.33304260282095777,0.08246261040113503,0.08246261040113503,-0.5670773378124019,-0.22158436841039775,-0.30889813220247375
165,0.2653372205505115,0.24549998669285178,-0.30990597358756394,0.8147410663876165,0.24781234764020654,0.8408410080322334,0.3521987362058889,-0.25429353491475953,0.7139666202299123,0.7239868254462112,1.2809299820759965,0.39094957825509496,-0.3663614504605806,-0.3671327798460589,-0.040177154775611165,-0.2879655607575486,-0.34610624665275547,-0.6062414864912014,-0.3816284908129874,0.24781234764020654,0.7668471835616943,0.49542367624781697,0.49542367624781697,1.0358400943374715,0.4501074104145853,-1.703383522874657
166,0.5191428119442416,-0.7976876235081717,-0.5511062249128867,-0.5213194544155174,-0.7975002695818556,-0.45854513709939204,-0.7861467888611386,-0.4114429357810201,-0.12967825889920753,-0.08622726692048982,-0.5478472749481288,-0.5074573185204556,-0.43634984481485334,-0.33141471218315777,-0.21570247351673752,-0.36571064397819214,-0.4133159722445798,0.525227967568773,-0.21090394368342535,-0.7975002695818556,-0.4799602761382971,0.062215543994708404,0.062215543994708404,-0.8227192230550749,-0.29011943334717644,-0.3210482586178476
167,0.5628771236681629,-0.6909077922609855,-0.5805599684479663,-0.6779355539579625,-0.6833840876871213,-0.6129050401068428,-0.6596946739713562,-0.44314211437420675,-0.5233792040113575,-0.47349189202561875,-0.5295301943173674,-0.21626856409635667,-0.4138592398303347,-0.48991922248130276,-0.3156096406127195,-0.26222904246457857,-0.2292294316172919,-0.23962278648366442,-0.8691596455620364,-0.6833840876871213,-0.6353050588653489,-0.2628534923745068,-0.2628534923745068,-0.8768715482573644,-0.4460756247660224,0.7330975763471062
168,0.46580153908316363,-1.2724928475276363,-0.4736935163897038,-0.20241506762677824,-1.2652679974883092,-0.1480127929018586,-1.337131924918375,-0.4738629257984499,0.7139666202299123,0.7611769792506424,-1.0945068565943255,-0.850729564310025,0.0044190950822473405,-0.3372349888715582,-0.13721178763986464,0.03872872665081016,0.17083054497766845,-0.5804324635146277,-0.2501823898950648,-1.2652679974883092,-0.07367840287809711,1.3752927876671566,1.3752927876671566,-0.8979587976749219,0.36075204872272054,-0.16610460922497727
169,-0.1471926807566066,0.8692234271393575,0.09886085508466996,0.965930225810839,0.8668553587379757,0.9149176213137644,0.9558815705298921,-0.006406493392753611,0.3272960522108996,0.306917552007337,1.8454517664898902,0.39239087303887654,5.370561727670238,-0.042320601775106576,-0.26061077333798954,2.0324187495596377,3.493896200285883,-0.5302906126553862,0.431382668031506,0.8668553587379757,0.8522048677638304,0.10187278413854395,0.10187278413854395,1.4360276900338727,0.29163390783161164,0.4227892007501727
170,0.4113064820759669,-0.4252532243735819,-0.44517409214259623,0.28816696286124466,-0.41881847200574857,0.33895024445569344,-0.37985675782385875,-0.5347321145756581,1.0303334502196997,1.085802205304802,-0.569013678174244,-0.17108159555946972,-0.12786708589455562,-0.5217154326509491,-0.27753970750876,0.8684330378856528,0.857971879526627,-0.8838885602409169,-1.2407807388168632,-0.41881847200574857,0.289542739894888,0.640864657441295,0.640864657441295,0.12600492940470026,0.2781921381880104,0.03056257509618127
171,2.1606505515635233,-0.8532462386383614,-1.952623052415586,-0.6699624662074078,-0.8417900709521633,-0.4444511154878544,-0.6239242759428044,-1.9858605016216073,-0.7624119188787812,-0.5499340037553178,-1.1903378442543426,-0.7679092641473375,-0.4508909615178549,-0.5384461824199023,-0.2514421044514969,-0.30588908682881916,-0.3299728594547224,-0.2988484813817753,-1.3899208895317392,-0.8417900709521633,-0.6206103929077563,-0.08808969237125334,-0.08808969237125334,-0.9733477996869948,-0.3915737680584288,-0.6696368629757209
172,1.155831243804533,-1.0966285579235728,-1.1223542463132343,-0.8244907162995188,-1.0918653956513484,-0.7046594041478496,-1.047884143640448,-0.9578105593455803,-0.6358651868828664,-0.5309152623660817,-0.8851868291027432,-0.6942961406327205,-0.24022719164235906,-0.21472139474948354,-0.26934034340578866,-0.254943053536003,-0.1444786605662802,0.0712978266057772,0.10939286731302614,-1.0918653956513484,-0.7537135955844466,-0.007676917569063011,-0.007676917569063011,-1.3550348598655046,-0.4237318580724616,-0.00901809069475286
173,-0.1843602127645723,-0.23635765836020123,0.13491772654711306,-1.1457654561541522,-0.2269783546007688,-1.1414977040384893,-0.2693001345962022,-0.020813482582124964,-0.7137400994644141,-0.703166294710428,-1.203322995253861,1.029464144167044,-0.3654206107878247,0.05258225095887357,-0.16005123117776948,-0.3578155844877557,-0.3420165123855609,1.296744530538272,0.6206893491989748,-0.2269783546007688,-1.087841064887136,-1.1294618885563317,-1.1294618885563317,-1.1003461612099226,-0.7946339271395283,1.8687434145674184
174,0.5848287385795676,-0.03747081462382545,-0.6068746023503905,0.2921138345631043,-0.03881105734929315,0.36857250704479255,0.09184990367406967,-0.4738629257984499,-0.12967825889920753,-0.07825794788835373,0.5268516612134829,0.7890245303278861,1.581936387074527,-0.266961970706212,-0.2181770425339868,1.0650520924920945,2.409227695742013,-0.3120538172603541,-0.04481596667642172,-0.03881105734929315,0.25938846832179535,0.22653386959228333,0.22653386959228333,0.38337670801911145,0.09010003658757318,-0.25808230865886345
175,-0.3482469871233107,-0.20914838159934354,0.29942827149815976,0.3458571656898812,-0.20706505328165833,0.28182268323194465,-0.26789009961462773,0.18814437691542013,0.37650866908445135,0.3266740156731983,0.14726866495028856,1.1504370803784383,5.139812696496306,0.3550469204763032,-0.256139054955443,0.9484094951592903,3.6382849175265797,0.3670205635816052,0.9875273420393614,-0.20706505328165833,0.3521500293650155,0.4870321086142665,0.4870321086142665,0.3042002250967599,0.2438601587200729,-0.14237053642258074
176,0.2295690815085454,0.26809029485346303,-0.2691873600495162,0.4933007178195729,0.265459222616514,0.5148475739120072,0.369056512349361,-0.41754143818733386,0.7139666202299123,0.7515834392552311,0.4710935418406601,1.3368908305437441,-0.31723288916620407,0.39257963664020396,-0.18249938844432234,-0.35938005960569147,-0.37517278717767155,0.830174043483429,0.912075598484112,0.265459222616514,0.43633725178791827,0.15545246777305352,0.15545246777305352,0.6395848416863074,0.13760765162933092,-1.107699057455792
177,0.28522011035278927,0.10686048055694566,-0.32017850150150506,3.489259377460468,0.10631883891921261,3.5005427937060802,0.19816231394214523,-0.701768498094479,0.7561488650721959,0.8431453320290486,3.648249190918503,-0.6149720625719541,-0.10991307431823925,0.14992647210550528,-0.23879741493859008,-0.28433257019254404,-0.2705559755702215,-0.20876581869374816,0.6821683985361036,0.10631883891921261,3.3900548348254804,3.321490851876489,3.321490851876489,2.0562220249121923,4.278709705853161,-1.5261752379481817
178,-0.17769338670128515,0.25765615027776667,0.12134640264245854,0.3938948193449721,0.2555201987304152,0.3551566022446267,0.27709060457757484,0.18311626311078527,0.2921441819308201,0.24617230849112856,0.708626460877066,1.710775189257671,0.22844179190293912,0.5010142861414199,-0.30864602290259496,-0.24983135802223727,-0.007789365085599615,0.6038491157658813,1.1347300867182304,0.2555201987304152,0.3450242910873495,0.07325369933262492,0.07325369933262492,0.5434493671464538,0.06247036935620504,-0.057247860095101424
179,0.9054196523274117,-0.775552803055256,-0.900422910646059,-1.0373828116388293,-0.774342660995085,-0.9461147656199079,-0.7061984800741329,-0.9094157920708918,-0.9130627915076961,-0.8182143864503537,-0.9961086485656847,0.0016033640921953452,-0.3790845112209139,-0.4634516135234295,-0.13563959889891597,-0.22591464316862012,-0.24895733956642696,-0.5975149070064405,-0.7850870518211203,-0.774342660995085,-0.9780219889435998,-0.650556422714176,-0.650556422714176,-1.2727779500351775,-0.6606657851521277,0.17630918788943492
180,0.6410445765557569,-0.1430708204483907,-0.666229549847982,1.0290351290552375,-0.1448400698304942,1.123892103419021,-0.017439565282192888,-0.6246312332004021,2.039694289240626,2.1165751446821104,0.37625299708333204,-0.27356725218579053,-0.3493585401870489,0.07469396302607777,-0.21352196983875765,-0.35355073356421335,-0.4259327535577215,-0.2935435717422409,0.6274215065587108,-0.1448400698304942,1.0139245917494577,1.1589472801405842,1.1589472801405842,0.7111294666389303,0.9248370093450944,-0.6384548675340568
181,1.0168968873416209,-0.2804951449335285,-0.9960730796632863,0.20998799426421852,-0.2800652211987889,0.34761282710901636,-0.11273858014582303,-1.2031865035470282,0.9951815799396196,1.1805533799891854,0.21981282025419688,-0.9205640597124886,-0.20696737026027026,-0.31074457665066185,-0.24673307784895485,-0.17826533206843234,-0.16740436041593817,-0.5741127987242527,-0.15980787217447345,-0.2800652211987889,0.24187242599898123,0.4351621735313897,0.4351621735313897,0.1727180374504393,0.16862110810049205,-0.8971008428207289
182,0.720133330915168,0.47054478646589687,-0.7167945376060452,1.1543978938512345,0.4676078759102885,1.261838795094629,0.6988216228629253,-0.6343031855784973,0.7216361190620608,0.7967773725744617,0.8194341074898797,0.9275993012521085,4.774303001764152,-0.1992080620782207,-0.06411357060372948,2.6775997899923194,3.08306450257492,-0.8297451114562012,0.12361256540407281,0.4676078759102885,1.1812223368207966,0.6898663956041649,0.6898663956041649,1.1877088948464034,0.7669131239116039,-0.7549994729270656
183,1.2821555269165372,-0.45156655737071877,-1.2282493966818047,-0.2727714869214532,-0.4524339032542102,-0.1178101397285173,-0.26979947588679365,-1.1496208177480143,-0.4912403506776688,-0.3609248114940826,-0.4236863387590286,0.7848394552559828,-0.2856625636490186,-0.0271431904242225,-0.24239929384812264,-0.32035685056760804,-0.31854195370633726,0.045038584404788404,0.49755437271645436,-0.4524339032542102,-0.2570956226777317,0.008530181278760846,0.008530181278760846,-0.3117609162822676,-0.21424636648117049,-0.8531331354543321
184,0.21104138521288454,-0.23252969539778043,-0.250262053516843,-0.6158479822329375,-0.23001763659536434,-0.5864927999652912,-0.19687469875766528,-0.26848227944948433,-0.8740707999027686,-0.8373674416252411,-0.6597780860680836,1.0892935862793385,-0.40578538368211875,-0.3857436713167682,-0.12814127646693513,-0.3229472961032509,-0.31459899846974965,0.1378276959903316,-0.37534741437750585,-0.23001763659536434,-0.627471698888575,-0.6047652927607767,-0.6047652927607767,-0.5028358462189202,-0.5387477200907703,-0.4119994022151367
185,0.6545974231598491,0.34613509847906343,-0.6745573437091871,0.6534682965990242,0.3426154970979811,0.7453125573810246,0.5457041992901968,-0.42741771930586314,0.42636041275888287,0.46807668322948764,0.7797816046099517,-0.003155944704431262,-0.2399419684198029,-0.4061442609475926,-0.11628484320145001,-0.10329576169738987,-0.2116258933934059,-0.9226283030136327,-0.5108240864663675,0.3426154970979811,0.6063410665006057,0.2597467195854527,0.2597467195854527,0.7606570297041239,0.26077125839737203,-0.5204749480629436
186,-0.7215200508134616,-0.01619454351642675,0.7002692616414974,0.11145132064173471,-0.017584955226157307,0.0025132774058362296,-0.1287866278250896,0.4886311437910223,0.23188383287925401,0.1467820537588462,-0.2720426236753036,2.3955586417522206,-0.383366781972872,-0.3938380452457575,-0.2631845495728893,-0.29317389187433046,-0.3211638112303958,-0.4031203691987131,-0.39096184350882685,-0.017584955226157307,0.09850690400745352,0.03856856301834663,0.03856856301834663,0.19986320065431482,-0.056151649694821164,1.4965639890755464
187,2.5077889529732076,-0.8216728020657937,-2.24014830860351,0.351183873688943,-0.8257231958511745,0.7201164594634153,-0.5335852442809992,-2.3195914663662585,0.5934459246577151,0.9778627994187968,-0.34881989922543016,2.172006088479318,-0.06796736729885577,-0.3513761883249504,-0.29643248066893696,-0.005140665312814578,-0.29818501160863947,-1.2218369965122584,-0.28867252685183886,-0.8257231958511745,0.39404686918911286,1.3251113254626832,1.3251113254626832,-0.09543960494526363,0.6310175324974779,-0.8972582947140569
188,0.2960032592117159,-0.10364515158642956,-0.33011493471831077,-0.796561980579872,-0.10326604092783265,-0.7575497956696344,-0.03711192292993253,-0.5855814923191156,-0.5635527675148003,-0.4980854298981001,-0.8515391506358274,-1.1620952967187381,-0.4491346334575751,-0.5434594844024397,-0.29835062714896504,-0.2842658094833882,-0.2963173636771254,-0.3556556584003001,-1.4123991565758582,-0.10326604092783265,-0.809119684552945,-0.8848543591929172,-0.8848543591929172,-0.6128638942863206,-0.6670042125313926,0.08503157710677714
189,1.0878066958195762,-1.3534817529973684,-1.071822968851393,-1.2487303403278478,-1.3442946686641075,-1.1488079839389198,-1.3562684636328028,-0.9750365403575261,-1.078778748868568,-0.981317173006098,-1.3132989711194696,-0.03004747257680902,-0.3538563791023007,-0.5121091555253884,-0.31803708841853634,-0.028329329712209465,0.13977724723062554,-0.45408252751493605,-1.114872156520873,-1.3442946686641075,-1.1521652238229514,-0.382169673281438,-0.382169673281438,-1.9507268198424792,-0.661649354785047,-0.042726534459198044
190,0.31400489686388333,-0.45447438580117744,-0.34656557829783885,-0.09444015692977568,-0.44860872246647354,-0.057216545760071034,-0.4297804812277877,-0.6302449325952438,-0.12967825889920753,-0.057985239296700054,-0.5119043248155906,-0.7364756322311319,0.16963082465527876,-0.07132087926426671,-0.3025801614153813,-0.11401336752978405,0.3026727236173583,0.24630046040409082,0.32084059638604107,-0.44860872246647354,-0.08258932841044253,0.2187654670936069,0.2187654670936069,-0.179438799559916,-0.0656450282915156,0.13342358031365514
191,-0.38088915890059694,0.9990779137521923,0.32371459949045894,1.479510440162561,0.9985865075224148,1.3681920182380025,1.0449027971821863,0.26376694354672126,1.557611501889967,1.4483827771086,2.8591295852151926,-0.7787621980514718,-0.14770985626964828,2.1440219782982886,-0.25329545800659153,-0.36773448434130335,-0.31189471653420825,3.082753073364792,2.760094102754336,0.9985865075224148,1.4301170357980317,0.48863621906817994,0.48863621906817994,1.7868337456797414,0.7702071763221628,0.12055023092300769
192,1.8085677458277392,-0.9050961281091452,-1.6539678625289271,0.6371328015694042,-0.8999090115182303,0.9145982603246285,-0.7377482387609591,-1.645594839159531,0.7139666202299123,0.9746748799111183,-0.3285243444892992,0.6960957296262458,-0.1350786714369633,-0.26578041431710503,0.5888852213473048,-0.15796271216463031,-0.22008188003256346,-0.7978091528334135,-0.031826779254929105,-0.8999090115182303,0.7017627968597812,1.8941669289353438,1.8941669289353438,0.03779604584389307,1.096994286368346,-1.1611914502866691
193,0.22244292137518032,-0.16481043903389445,-0.2626075934335295,-0.16257249751926872,-0.1629619298748552,-0.13606598936989225,-0.11857638413471445,0.05586353794908338,1.7685227210395136,1.6944960765847055,-0.8353908683885312,1.0816025035549532,0.276917962373554,0.6024097718689857,-0.32861003281861745,-0.25299447973009725,0.049983770531039695,0.9076414311869224,1.1760347064853998,-0.1629619298748552,-0.1727986271024225,-0.14150530793187766,-0.14150530793187766,-0.08109771879725267,-0.23190867792005085,-0.45433822084710446
194,0.6502002656690484,-0.1820161293146151,-0.6704638826542935,0.5155174112132213,-0.18571246591837176,0.6049309006444277,-0.06131106239556423,-0.8779841518284901,0.8826955970681102,1.003287685103161,0.6520554862080458,0.03275203158416689,1.87172561187101,1.194922146559068,-0.26192242189881726,-0.09869642569875939,0.3245358679128554,0.19887171336033493,1.6847329804478843,-0.18571246591837176,0.512517626091397,0.6461576842840434,0.6461576842840434,0.4193399395544333,0.39450599097465333,-1.0636062275420852
195,0.5290537203261239,-0.04939755125575854,-0.5469499470418983,0.43694825254659486,-0.050353058383968516,0.5047570910400087,0.06645416808925739,-0.32855826111634917,0.7561488650721959,0.7772249998832049,0.42767490651197737,1.4356020260555666,0.4939601422019038,-0.2934769421729702,-0.1442417005812357,0.35354378920419405,0.5359234465323317,-0.6878328206197293,-0.1084510133302859,-0.050353058383968516,0.4560288024131085,0.4478725696334239,0.4478725696334239,0.45925252297921865,0.2770741325878238,0.8226656581780655
196,-0.04413426788324603,-0.5383399322088216,-0.0148748117594422,-0.41549090447698045,-0.539385848487656,-0.41551248754469683,-0.5780070190543386,0.02613399041428388,-0.41089321860891403,-0.413753499499989,-0.23035122274644812,0.5450731102751686,-0.26771961012842715,-0.3848802910158157,-0.2497485632434083,-0.1662478866392401,-0.07705630991487297,-0.3788642845041864,-0.36656283099918135,-0.539385848487656,-0.3931097671232321,-0.0798946800935008,-0.0798946800935008,-0.48311130000911884,-0.2983744902514973,-0.3207725936152769
197,1.50990462546782,-0.609005229882066,-1.402440009188329,-0.5039096673726087,-0.600979750951812,-0.3368111980541068,-0.4250160758956879,-1.6377512419106977,-0.536751662929503,-0.3498869229728931,-0.8570858320563816,-0.57894971598557,-0.4520373861657646,-0.3309454449297686,-0.12996607318714165,-0.3797685526552561,-0.4645841880852562,0.33970864254653194,-0.23267113298339845,-0.600979750951812,-0.47690945385320216,-0.13018323531772474,-0.13018323531772474,-0.6190604745012995,-0.34711722729019423,0.9031182568566896
198,1.715094538720602,-0.8692729219571554,-1.6054478265665382,0.09681875515477244,-0.8718709802450292,0.3293853261910431,-0.7024501844456185,-1.1964391079407592,1.0152683629568078,1.2009766202492986,-0.06393638993878215,-0.11504848363944306,-0.41999678833635534,-0.4052039910270939,-0.31588836244194324,-0.3331333507363091,-0.401143416703426,-0.46359506386093674,-0.4207168778326001,-0.8718709802450292,0.16291023433132723,1.0683730096845303,1.0683730096845303,-0.2615201817700261,0.3852492656426215,-0.3136632811099058
199,0.7994842435712436,-0.7154916573011796,-0.7869710038349217,-0.025223562626265347,-0.7123706288525298,0.07458019562948394,-0.6543074334082595,-0.8138861377550916,0.3209048019186421,0.42245647394117575,-0.5886681950474274,-0.631976438676067,0.7386191181648841,-0.47250455430835053,1.4349612813369699,2.0747839862323123,0.6949440390954863,-1.2546377799985933,-0.8793232783622942,-0.7123706288525298,0.05283880756723609,0.7722195343459235,0.7722195343459235,-0.2710432171290279,0.20506018177017094,-0.993067862123813
200,-0.33680315560300333,0.6072463623874202,0.2813830281785021,-0.32282842579365184,0.6057001442807685,-0.3597920028479478,0.6269920102156622,0.12613337757680157,-0.8182413606562423,-0.8178358096921847,0.7376245436521213,0.6096070506110675,-0.31496782434438403,0.5802908377869965,-0.2002582043137713,-0.3645485410471601,-0.39598844017106205,0.8088712906943528,1.0985657608045736,0.6057001442807685,-0.38139733641078233,-0.821546769723298,-0.821546769723298,0.1501465837637961,-0.5292470239617335,0.8721847778956917
201,-0.09293683154767894,0.7611216481137995,0.052425797138756294,0.7637325036034205,0.7620279065113347,0.7262963584882864,0.84741524747585,-0.13829349238687974,1.13578906105994,1.1173314617854244,0.9093646691535684,0.13361775255202799,0.9448909712403875,1.8100014107234899,0.6364693910698529,-0.26157697614320474,-0.19864760756934377,-0.1022649107240005,1.7564531928372549,0.7620279065113347,0.6791029424055296,0.022501403079728994,0.022501403079728994,1.0229091466011697,0.17942639862461082,-0.9825623977315863
202,1.277456225000386,-2.0123507778339844,-1.2535165573222635,-1.750515129518327,-2.0113840432377885,-1.657970914161208,-2.1134726005145716,-0.3106968716213245,-0.9955243195242661,-0.9535376647938403,-1.4532849798453553,0.6902629172083994,-0.2833823240854948,-0.564191914215094,-0.3275181758405907,1.9104047041116852,1.5231725352369727,-1.0089508945525696,-1.5622660390771024,-2.0113840432377885,-1.5966204212717954,-0.4171178046833019,-0.4171178046833019,-2.7477324078882654,-0.823000133348554,2.071238165472742
203,0.08143755083023248,1.4599350802899556,-0.13059790221877154,0.8933607190438381,1.4577769033575216,0.8858232228647741,1.6697245682780841,-0.19386465742328934,-0.0995480843734242,-0.08416946186764938,3.488166655571341,-0.33175780416223855,-0.3356384666052617,-0.1529197475180805,-0.09513588405219031,-0.3248771489103802,-0.32178759840202237,0.12036848555006363,0.19750651114921142,1.4577769033575216,0.7055275984162348,-0.34853538514225785,-0.34853538514225785,1.2405134387104095,0.010185226318382649,-0.3281161395835515
204,-0.9954653628735761,2.281960894365914,0.9774229706762949,1.9893466736208707,2.2784549133775815,1.714222012143091,2.247933736686104,0.8265009366222281,1.1659192355857226,0.9731080485955635,1.9410949863500195,-1.7269638971998031,-0.0995991642088631,-0.12268214202440719,-0.21605564939977592,-0.21417918350238652,-0.3112736788022046,-0.8761012166118154,0.25241321591467564,2.2784549133775815,1.7582215978674722,-0.024995738222408446,-0.024995738222408446,2.2578968822233483,0.59692761118514,-1.2625251786619296
205,-0.39462625769649967,1.3093654840625377,0.3495408906705432,0.9236850978299487,1.299209165329005,0.8292427050850248,1.3765374474462115,0.24871325634385932,0.5934459246577151,0.5261352002561168,1.5691157277904877,0.380231684948699,0.17593310736735568,0.16813291468742989,-0.15958603372997093,-0.20152613985470866,-0.1846247673277521,-0.5109673333441462,0.6687805523881252,1.299209165329005,0.7675152601865297,-0.22155121953313683,-0.22155121953313683,1.256663492826944,0.09527618058011611,-0.07503965308285011
206,1.1162147538496634,-1.8322518872430642,-1.1034399355769597,-1.5129482272733037,-1.832167213510208,-1.4199711788082883,-1.9146511636741508,-0.6920282401374471,-1.0621278640120815,-0.9881433176547857,-1.5775641998234589,-0.01358692030644121,-0.4476596263386766,-0.5494664052731851,-0.3321278633848862,-0.2539788325718784,-0.13427419184075942,0.10556884040768992,-1.647117874126523,-1.832167213510208,-1.3796604947629405,-0.174193000231673,-0.174193000231673,-2.3043542827424446,-0.7080001594096458,0.5512572006279038
207,-0.34018856680706977,1.5274348554314052,0.29104093292636246,0.27722244469949525,1.5441412330257538,0.21696863711859748,1.629555882726876,0.39669009015360635,-0.40084982710031997,-0.44359064907527584,-0.0860348371138447,-1.1475660521127153,-0.20866456035719955,-0.42036876814907753,-0.13495773573311395,-0.03433306222845005,-0.14445344119365677,-0.9280723199870218,-0.6555568199920943,1.5441412330257538,0.08967880796242379,-0.8350966968212732,-0.8350966968212732,1.0093352541182132,-0.40038098770086605,-0.29852504852906336
208,0.8254526615972904,-0.4564520416136421,-0.8330752366954647,-0.09675200650677088,-0.4539372738752835,0.008172445801421907,-0.34751890272123637,-0.9307638040729372,-0.7832712696948048,-0.6840890153264891,-0.3182987364566486,-1.614964172973992,-0.44938823032227876,-0.2771558610588621,-0.014767723158875225,-0.38035012430197956,-0.4250349853327273,2.212443190729943,-0.05516065966263672,-0.4539372738752835,-0.06860639255023633,0.2412851447667041,0.2412851447667041,-0.1773804424494358,-0.051139289997336565,-0.21892626471760687
209,-1.6316689578593209,6.181222251323345,1.7174121792033792,2.119138754086109,6.194753428226457,1.6783480534262212,6.012269035568193,1.55053774096066,2.0848895510293004,1.6832158767772047,1.3264036105984454,-1.209215373001679,0.6599340674314034,1.995057929299731,0.4906378657377765,-0.2959003656787489,-0.2765272916711098,-0.08767171592574965,1.6577665993052355,6.194753428226457,1.5708173725138996,-1.1791878167219034,-1.1791878167219034,2.8771225477706395,-0.19477935781859462,-0.4410734620763277
210,1.1061396268531185,-0.5104242251434953,-1.0763347267422336,-0.9001528906596697,-0.5136320412783052,-0.7878123097786605,-0.36690095415756585,-0.8334937392857479,-1.2978019400296212,-1.2152064775176084,-0.19066421693560437,0.7915302402352423,-0.40163286412044935,-0.17704318503830002,0.06128168459099596,-0.3573028765549127,-0.39105268285864864,0.42630168553213876,0.1266586600182792,-0.5136320412783052,-0.8703512942681609,-0.7023081530664341,-0.7023081530664341,-0.8634105741520731,-0.6396760903752604,1.1197423444679704
211,0.27864289859211333,0.3046182147717335,-0.30887933146236973,0.36237994173578075,0.3041421699015778,0.39138058064735226,0.4185479924995304,-0.2863042731873652,0.587419888233998,0.6046283327255678,0.15882196717651428,-0.8986757172385,0.0049057302913906985,-0.3999134674804151,0.06585301813967452,0.1881420603308823,0.29276512324575815,-0.7008771635785382,-0.43910051898280295,0.3041421699015778,0.3153593135012607,0.008103079695053491,0.008103079695053491,0.5498459969349816,0.022159164660797842,-0.728558194981106
212,-1.4067193542139484,3.318911799040945,1.4470129710231594,3.0358962469826887,3.3101687073344155,2.5684597975402386,3.184795586106035,1.1203856213957852,1.3165701056837034,1.063097632740921,2.7757284136709304,-0.6654445650680493,-0.020257623254517236,1.5857373473341172,0.10465257776472013,-0.34775616406838933,-0.4023689688576863,-0.13474366927421583,1.6528575679580573,3.3101687073344155,2.7224486192715807,0.07857007408790516,0.07857007408790516,2.843212142862707,1.0732375155872615,-0.4440520997525926
213,0.3934232025544871,-0.07324221571697165,-0.4169628545765064,-1.2042023564797788,-0.041304936649906136,-1.1560602430519016,0.013866698179473901,-0.1945297401234471,-0.2984072357374054,-0.27915917217756503,-1.4021139196021082,-0.4239225008185879,-0.39094661453377416,-0.29568590095965663,0.6349117771487146,-0.33368930104717776,-0.358296992751199,-0.011431410103278099,-0.11408644095441353,-0.041304936649906136,-1.176021100328661,-1.3121377774162917,-1.3121377774162917,-0.9852520732377594,-0.8510939615737924,0.7990776670535574
214,-0.16770303272834275,0.2974481583251266,0.14561302190626318,0.34768217167865934,0.3018450688510454,0.3066013337340584,0.31597671900055885,-0.15835732030516705,-0.27028574001952804,-0.2561472505880245,-0.2661254262675474,0.7697758353302016,-0.2035215993391395,-0.4964220033763549,-0.16872636887380563,0.2980939147126839,-0.10249268230132548,-1.1930613096962277,-1.0213353430264975,0.3018450688510454,0.30289246480852683,-0.0026567808206036997,-0.0026567808206036997,0.498241020071106,0.012468754559927662,0.23384889069535125
215,1.7724018116513536,-1.6525103964633392,-1.7085139563703957,-1.1396251805916648,-1.6529151589932518,-0.9779740142008526,-1.6365343964145396,-1.865260151851918,-1.4691267446719047,-1.3203735043317215,-0.7197248368703942,-1.5121872018479647,-0.3350468260462279,-0.4991139377477992,-0.3230001831000113,-0.0347481646582943,-0.08500108650037433,-0.824287726851928,-0.8215707413378135,-1.6529151589932518,-1.002242073796087,0.354142288966321,0.354142288966321,-1.5373077650891132,-0.4456279286799129,-0.28243367477274334
216,-0.9060983503633213,-0.11427501017769369,0.8317853785698838,-0.33532171995856547,-0.11432539780336792,-0.4336770188510281,-0.2562436115629498,1.025082737682079,0.08559664083853841,-0.058141497590238615,-0.6949453565171025,0.5456421888722788,-0.3878324625561237,0.3448346323150083,-0.18925973758810694,-0.3746794936959626,-0.42182749371149736,1.2142761241173408,0.720038008523799,-0.11432539780336792,-0.388773793755337,-0.4172948799650679,-0.4172948799650679,-0.18236755557780435,-0.4034111038772947,-0.7893188299372702
217,0.8926981080209788,-1.792166373458128,-0.95026099636203,-1.4293019713233313,-1.7936750661024996,-1.344229155678593,-1.8824770259012942,-0.6598697579755962,-1.8338409156005477,-1.7660486274048255,-1.161469452266431,-0.5294330492164177,-0.4317685457870436,-0.5040240560147461,-0.3271931744326524,-0.2898332647032214,-0.21645503502888538,0.18614944463333447,-1.0157798309884447,-1.7936750661024996,-1.275184936245215,0.0033387838136968474,0.0033387838136968474,-2.088265643003078,-0.6359389049865145,0.2933039604837547
218,0.9556495627864152,1.7064607727134515,-0.931652874800511,2.184209419909081,1.6847294991688493,2.363731163850261,2.1871897516116148,-0.6123779767345289,3.6667237009782347,3.7440089209081893,3.699544348938449,1.61732508489344,0.21693327555214184,1.9199368482076975,1.7900188995416155,-0.33207415465532775,-0.3566477725230639,-0.02878691771325991,2.1373077029411522,1.6847294991688493,2.145917288540863,0.5599565687777546,0.5599565687777546,1.9329838310174816,1.1698735358454633,-1.6593843416881606
219,-0.15650061695362752,0.9872835671184876,0.10944702953009296,1.622868555991784,0.9816135942182953,1.5515187465239295,1.0834774650649872,-0.05084394706195254,0.2921441819308201,0.2793886226759956,1.884037375957881,0.43441265066995377,-0.4294307354057338,-0.41794086152014,0.39275563681352105,-0.34127699417034935,-0.4642080300218318,-1.038918656511266,-0.7265940087400002,0.9816135942182953,1.9354693473872668,0.9139165631386462,0.9139165631386462,1.6759737381711424,1.304079693590034,-1.5125433832919417
220,0.6816962494492832,-1.9021264085748653,-0.6942514618677974,-1.8133422050475074,-1.9032483014156159,-1.7513258365282707,-2.0331967413692964,-0.5438625026921805,-0.9733231380283276,-0.9116754210024037,-1.5135145110459622,-0.6922089688722423,-0.4488976017241367,-0.21055318289491523,-0.29225221956425224,-0.3825184708867627,-0.4004291652382609,4.24257203941349,0.34988262723352426,-1.9032483014156159,-1.6875091724416957,-0.7927241956285882,-0.7927241956285882,-3.677710687904488,-0.8982228138184618,3.5414180056736373
221,-0.5364246459478048,-1.407692169098184,0.5403723854485869,0.2521948523205118,-1.4043814524413394,0.1574128580440608,-1.601126167975999,0.8675736790328984,-1.7402730288359645,-1.739475500507788,-0.38014161876335506,-0.26395058758887585,-0.43367791212914514,-0.15005168513751146,0.4766067108096131,-0.3762366739596547,-0.44922172321017306,0.500236472792251,0.22102391980531727,-1.4043814524413394,0.5540425908797261,2.8224116318171064,2.8224116318171064,-0.41797103969519733,1.422140686801789,-1.0366218411699764
222,0.6627009949861583,-1.1005045330005279,-0.6785300412424037,-0.7124292068429887,-1.106181032516405,-0.6371993140004361,-1.1142523745271107,-0.5428765895697556,-0.12967825889920753,-0.06935934417128824,0.4046408797519364,2.2242187184725006,-0.45556727736151287,-0.5204536868484857,-0.3276567775871965,-0.34860978908276014,-0.38827758896114467,0.0850420629528248,-1.57940860330905,-1.106181032516405,-0.6194111491292872,0.2194097132290451,0.2194097132290451,-1.1613895726938006,-0.30476245219122317,-0.6690853799292854
223,0.8804717516082254,0.3542580055927208,-0.86858802549882,0.7964813758132366,0.3393033859451118,0.9270518119694214,0.5990737456658182,-0.6846143114399609,3.3503568709884477,3.449421714492103,-0.04514519308920822,-0.0838805935728082,-0.42291467131289123,-0.4417222974321634,-0.3058625280593857,-0.3219502944397716,-0.45663427442137555,-1.1127914909896879,-0.5672517427540689,0.3393033859451118,0.8516082563788708,0.49806070962264415,0.49806070962264415,0.7851644263884652,0.49284905702702186,-0.9635479854482423
224,1.6317083896281488,-1.7997503257965766,-1.5145711648564584,-1.5705179852687607,-1.794298222790012,-1.4527250891908925,-1.8353946971841502,-1.119266230066215,-0.9733231380283276,-0.8605270567537499,-1.2135217697902172,1.453625730981414,-0.4176101820377429,-0.45823728700871386,-0.3174398860334354,-0.29969644561867254,-0.2642085307945116,0.0900504624247511,-0.8141230894592478,-1.794298222790012,-1.4486846102639186,-0.36405895239830866,-0.36405895239830866,-2.5620706991499245,-0.7642005364434385,2.4779733215069575
225,-0.8104292687398534,-0.00921258653472099,0.7557428642257611,-0.6745570309054172,0.004150966929996597,-0.7445358366674072,-0.13133849726694521,0.5427283195137135,-0.5198223347676713,-0.5717807762338653,-0.8674027608433518,-0.019851200819774335,-0.3191874149608933,0.17684192346646074,-0.31697599507962015,-0.35008793232457464,-0.2909913076910359,1.518300314558896,0.8821067803159467,0.004150966929996597,-0.9629225691583709,-1.1050340729543697,-1.1050340729543697,-0.660124350591487,-0.7594248760096889,0.4792566912365773
226,-0.4488708240920106,0.06390805182227643,0.3934187981664661,0.10191628408961509,0.06644215662534211,0.03421981717439713,0.012606106195872943,0.3008358618386152,0.8194222310701531,0.7344459244239948,-0.06226507802349313,0.31497608419620393,-0.21766913365534443,-0.33659599680384705,-0.290793778595445,-0.16508437291989647,-0.08025381039899811,-0.3924738161323331,-0.25853874375780567,0.06644215662534211,0.1060652984041113,-0.0226792641302647,-0.0226792641302647,0.23833814543416118,-0.07640578435427843,0.10005233167836029
227,-0.925162375296016,0.6934491777657411,0.9207617459856785,1.6685502752435752,0.6851111887161017,1.426938690658254,0.5835336009837511,0.6910745914460902,1.5863721218777902,1.3919354110434181,1.2790562340432368,-0.7951669401289745,-0.24019092117408433,9.81591494372082,4.044251681589997,-0.3891852083377112,-0.46253083456041094,4.233455916897653,3.5898575042835597,0.6851111887161017,2.2878119319938794,1.4880725520434415,1.4880725520434415,1.45185023259389,1.9186019427773893,-1.003571763487748
228,0.24315231270891377,1.1222540604543831,-0.2692816613691361,1.8460580551198138,1.10821817176319,1.8556192427762594,1.3288394242795518,-0.4162538241247186,1.7866008252487962,1.8153892040942403,2.115591824023539,0.6425819507851391,4.776301190841249,2.486423197413785,0.7037723065371391,-0.010656392956231345,0.0705621525404233,-0.617642622262764,2.198553159590089,1.10821817176319,2.35883978993228,1.1484975536740383,1.1484975536740383,1.6819972299176473,1.7123129285255871,-0.15591911905307965
229,-1.1098140840304758,0.9815030626667124,1.1138898973727693,-0.00986329255524265,0.976838296311477,-0.16238508668899954,0.8463270683052871,1.404099066469061,-0.07215701639262805,-0.24616676298934206,0.21943485009469652,0.7510830055638982,-0.45121442943902135,-0.27573824923795703,0.749363589838372,-0.38169932654585004,-0.45547157806749566,1.0943836581557576,-0.29045911910584415,0.976838296311477,-0.30882265491507976,-0.9296695873862223,-0.9296695873862223,0.30911578107832804,-0.5366561984147973,-0.035844244913824326
